1.79.,,3.04,,5.96,,8.92,,11.91,,
Wavelength (nm),Abs,Wavelength (nm),Abs,Wavelength (nm),Abs,Wavelength (nm),Abs,Wavelength (nm),Abs,
800.0020752,-0.00924916286,800.0020752,-0.005797638558,800.0020752,-0.007587400731,800.0020752,0.0005363777163,800.0020752,-0.003776910715,
798.991272,-0.01079870388,798.991272,-0.008501075208,798.991272,-0.007823702879,798.991272,0.001735778991,798.991272,-0.00435427716,
798.0149536,-0.01111477241,798.0149536,-0.007512454875,798.0149536,-0.00759757543,798.0149536,-0.0004758339492,798.0149536,-0.003163570771,
797.003418,-0.00827829726,797.003418,-0.007644479163,797.003418,-0.006208732259,797.003418,0.003313665977,797.003418,-0.003915667534,
795.9914551,-0.01019111089,795.9914551,-0.007521613967,795.9914551,-0.00773893157,795.9914551,0.0009634823655,795.9914551,-0.003225138877,
795.0140381,-0.009254737757,795.0140381,-0.006276504602,795.0140381,-0.005685491487,795.0140381,0.001336190384,795.0140381,-0.004159769975,
794.0012817,-0.007719096728,794.0012817,-0.00580009073,794.0012817,-0.008024352603,794.0012817,0.001040489413,794.0012817,-0.003083899384,
792.9880981,-0.008809484541,792.9880981,-0.007770156953,792.9880981,-0.00805611629,792.9880981,0.0009360869299,792.9880981,-0.002919215942,
792.0095215,-0.009604240768,792.0095215,-0.007215903141,792.0095215,-0.00603343593,792.0095215,0.001324869459,792.0095215,-0.003357804846,
790.9955444,-0.008591890335,790.9955444,-0.006749592721,790.9955444,-0.006991292816,790.9955444,0.0005401876988,790.9955444,-0.00197701226,
790.0162354,-0.00923993811,790.0162354,-0.008054642007,790.0162354,-0.007494136225,790.0162354,0.001589455991,790.0162354,-0.00276090065,
789.0014648,-0.00897899922,789.0014648,-0.005234363489,789.0014648,-0.006408292335,789.0014648,0.002346679103,789.0014648,-0.002072860254,
787.9863892,-0.008172377944,787.9863892,-0.006823395845,787.9863892,-0.00666389754,787.9863892,0.001395058702,787.9863892,-0.002036533318,
787.0057983,-0.008511025459,787.0057983,-0.006075301208,787.0057983,-0.006269819569,787.0057983,0.001233533956,787.0057983,-0.001815878437,
785.9898682,-0.007960766554,785.9898682,-0.007779666688,785.9898682,-0.006873899139,785.9898682,0.001109828125,785.9898682,-0.002155190101,
785.008667,-0.008178017102,785.008667,-0.00585525902,785.008667,-0.006845157593,785.008667,0.000842421141,785.008667,-0.0006166317617,
783.9918823,-0.008054744452,783.9918823,-0.006118642632,783.9918823,-0.006985739805,783.9918823,0.003290738445,783.9918823,-0.001763958484,
783.0100098,-0.007978913374,783.0100098,-0.006386101246,783.0100098,-0.005521383137,783.0100098,0.003027485684,783.0100098,-0.0007046653191,
781.9924927,-0.01026893314,781.9924927,-0.007647073362,781.9924927,-0.008987468667,781.9924927,0.0007896959432,781.9924927,-0.003490327392,
781.0097656,-0.009781594388,781.0097656,-0.007536115125,781.0097656,-0.007315437775,781.0097656,0.001143878791,781.0097656,-0.002910113661,
779.9914551,-0.01040659193,779.9914551,-0.007801431231,779.9914551,-0.00821154844,779.9914551,-0.0005094475928,779.9914551,-0.003375322791,
779.0079346,-0.008871881291,779.0079346,-0.006182957906,779.0079346,-0.006305896211,779.0079346,0.00197214121,779.0079346,-0.001980259083,
777.9889526,-0.01008287538,777.9889526,-0.007436173037,777.9889526,-0.006479450502,777.9889526,0.001108270953,777.9889526,-0.001926812576,
777.0046387,-0.009712697007,777.0046387,-0.007347661071,777.0046387,-0.008456802927,777.0046387,0.0003228144196,777.0046387,-0.003010228742,
775.9848633,-0.007494492456,775.9848633,-0.006098580547,775.9848633,-0.005349899642,775.9848633,0.003516622586,775.9848633,-0.0008298872854,
774.9998779,-0.007777124178,774.9998779,-0.006050437689,774.9998779,-0.006184336264,774.9998779,0.002728443127,774.9998779,-0.001608625753,
774.0144653,-0.009870927781,774.0144653,-0.006701572798,774.0144653,-0.007438513916,774.0144653,-0.000289463962,774.0144653,-0.002318618353,
772.9934692,-0.008118214086,772.9934692,-0.006372377276,772.9934692,-0.006814069115,772.9934692,0.00261319126,772.9934692,-0.002511377679,
772.0073853,-0.007548987865,772.0073853,-0.00769814197,772.0073853,-0.007340687327,772.0073853,0.0018152626,772.0073853,-0.00122361281,
770.9856567,-0.009272880852,770.9856567,-0.006735370494,770.9856567,-0.008060690016,770.9856567,0.0006171196583,770.9856567,-0.002473800443,
769.9987793,-0.008253864013,769.9987793,-0.006237771362,769.9987793,-0.006907174364,769.9987793,0.002028286923,769.9987793,-0.001316478592,
769.0115356,-0.006713858806,769.0115356,-0.006261603441,769.0115356,-0.005746754352,769.0115356,0.002533952007,769.0115356,-0.0007231692434,
767.9887085,-0.00895136036,767.9887085,-0.006007497665,767.9887085,-0.007154082879,767.9887085,0.00269452855,767.9887085,-0.001730802818,
767.0006714,-0.009842029773,767.0006714,-0.00687853666,767.0006714,-0.006897136103,767.0006714,0.001913142507,767.0006714,-0.001812321017,
766.0123901,-0.008980216458,766.0123901,-0.005221319385,766.0123901,-0.007384818979,766.0123901,0.001257599215,766.0123901,-0.0006963951746,
764.9883423,-0.007708822843,764.9883423,-0.006638558116,764.9883423,-0.006456701551,764.9883423,0.002099786419,764.9883423,-0.001196508179,
763.9993286,-0.007015796844,763.9993286,-0.005287864711,763.9993286,-0.005394438747,763.9993286,0.001880565425,763.9993286,-0.002172601875,
763.0098877,-0.006940548308,763.0098877,-0.005901431665,763.0098877,-0.005489842035,763.0098877,0.002337257611,763.0098877,-0.0007173803751,
761.9847412,-0.007441058755,761.9847412,-0.005859038793,761.9847412,-0.006069787312,761.9847412,0.003236646065,761.9847412,-0.001662730356,
760.9946289,-0.008984070271,760.9946289,-0.007923403755,760.9946289,-0.007294463459,760.9946289,4.325760892E-005,760.9946289,-0.00343901827,
760.0040894,-0.008157440461,760.0040894,-0.005139057525,760.0040894,-0.005939428695,760.0040894,0.003436044324,760.0040894,-0.0007013572613,
759.0131836,-0.008536307141,759.0131836,-0.006820032373,759.0131836,-0.006318397354,759.0131836,0.0008259519236,759.0131836,-0.002259702655,
757.9865723,-0.008415064774,757.9865723,-0.005955463741,757.9865723,-0.005933759734,757.9865723,0.003599799937,757.9865723,-0.0006860055728,
756.9949951,-0.009910349734,756.9949951,-0.006716866512,756.9949951,-0.007459481247,756.9949951,0.0008310612175,756.9949951,-0.002450223081,
756.0029907,-0.009042588063,756.0029907,-0.00652066106,756.0029907,-0.007532146759,756.0029907,0.0004901684588,756.0029907,-0.002740168246,
755.0106812,-0.008365552872,755.0106812,-0.00570996711,755.0106812,-0.006781042088,755.0106812,0.002236341825,755.0106812,-0.002572678262,
753.9825439,-0.00913638249,753.9825439,-0.005775058176,753.9825439,-0.006440735888,753.9825439,0.0018494986,753.9825439,-0.002525326796,
752.989502,-0.01017513033,752.989502,-0.008350977674,752.989502,-0.008386424743,752.989502,0.0005468486925,752.989502,-0.003362274263,
751.9961548,-0.008404756896,751.9961548,-0.006885466632,751.9961548,-0.007730184123,751.9961548,0.001727514435,751.9961548,-0.001767567825,
751.0023804,-0.00824929215,751.0023804,-0.006250070408,751.0023804,-0.005990392063,751.0023804,0.003240531776,751.0023804,-0.00126800919,
750.0082397,-0.008737845346,750.0082397,-0.006995113567,750.0082397,-0.006878842134,750.0082397,0.0020525523,750.0082397,-0.00197010627,
749.0137329,-0.008710495196,749.0137329,-0.007759375963,749.0137329,-0.006630145013,749.0137329,0.00259962352,749.0137329,-0.001928152749,
747.9834595,-0.008334573358,747.9834595,-0.00670330599,747.9834595,-0.007210352924,747.9834595,0.001394461375,747.9834595,-0.002586110728,
746.9882202,-0.009119196795,746.9882202,-0.006980084814,746.9882202,-0.006720179692,746.9882202,0.0003025570186,746.9882202,-0.001723892987,
745.9926758,-0.0093780756,745.9926758,-0.008177305572,745.9926758,-0.006224451587,745.9926758,0.001044407603,745.9926758,-0.002369751222,
744.9967651,-0.008017796092,744.9967651,-0.006606741343,744.9967651,-0.005768008064,744.9967651,0.002424920909,744.9967651,-0.001011222019,
744.0006104,-0.008062570356,744.0006104,-0.00550696766,744.0006104,-0.006487560458,744.0006104,0.002718857257,744.0006104,-0.001672838815,
743.0040283,-0.007392555475,743.0040283,-0.006351561751,743.0040283,-0.007662537042,743.0040283,0.001889300998,743.0040283,-0.001518814825,
742.007019,-0.008130002767,742.007019,-0.005210935138,742.007019,-0.005438001826,742.007019,0.001958099194,742.007019,-0.0008164003957,
741.0097656,-0.008171920665,741.0097656,-0.006530401763,741.0097656,-0.006297425833,741.0097656,0.002408599947,741.0097656,-0.0007224973524,
740.012085,-0.009176176041,740.012085,-0.006864318624,740.012085,-0.006947579794,740.012085,0.002349776216,740.012085,-0.00251832651,
739.0140991,-0.008533666842,739.0140991,-0.00584437931,739.0140991,-0.006709933281,739.0140991,0.002413545502,739.0140991,-0.001121845562,
738.015686,-0.009471291676,738.015686,-0.005835082382,738.015686,-0.006229707971,738.015686,0.002092269249,738.015686,-0.001447922667,
737.0170898,-0.008912205696,737.0170898,-0.007039688062,737.0170898,-0.007240546867,737.0170898,0.001977159875,737.0170898,-0.002136953175,
735.9823608,-0.008726580068,735.9823608,-0.005916957743,735.9823608,-0.007584806066,735.9823608,0.002201763215,735.9823608,-0.001521291095,
734.9829712,-0.009542810731,734.9829712,-0.008119789883,734.9829712,-0.007474799175,734.9829712,0.001432300196,734.9829712,-0.00218068948,
733.9832153,-0.008392010815,733.9832153,-0.005751863588,733.9832153,-0.006985128392,733.9832153,0.001823918778,733.9832153,-0.001519382233,
732.9830933,-0.007674744818,732.9830933,-0.005691061262,732.9830933,-0.005667606834,732.9830933,0.001845287159,732.9830933,-0.001331137028,
731.982666,-0.009250429459,731.982666,-0.006749694701,731.982666,-0.007197571918,731.982666,0.001839983976,731.982666,-0.002346837427,
731.0176392,-0.008962365799,731.0176392,-0.006824721117,731.0176392,-0.0070097344,731.0176392,0.001028086408,731.0176392,-0.002023135312,
730.0165405,-0.009628799744,730.0165405,-0.006688725669,730.0165405,-0.007351784036,730.0165405,0.001369427773,730.0165405,-0.001974590123,
729.0150146,-0.008421107195,729.0150146,-0.006773753557,729.0150146,-0.006257623434,729.0150146,0.002184852026,729.0150146,-0.001670775819,
728.0132446,-0.008692733943,728.0132446,-0.006130638532,728.0132446,-0.007007747889,728.0132446,0.00203621923,728.0132446,-0.001719303429,
727.0110474,-0.008472999558,727.0110474,-0.005944024771,727.0110474,-0.006342479959,727.0110474,0.00281230337,727.0110474,-0.001182568027,
726.0085449,-0.008540621959,726.0085449,-0.007521868218,726.0085449,-0.00634748023,726.0085449,0.002427550033,726.0085449,-0.0009476343403,
725.0057983,-0.008577525616,725.0057983,-0.006579460576,725.0057983,-0.006679957267,725.0057983,0.002368906047,725.0057983,-0.001637252048,
724.0026245,-0.00901449658,724.0026245,-0.006246447098,724.0026245,-0.006708148867,724.0026245,0.002825070173,724.0026245,-0.001768083428,
722.9990845,-0.009552584961,722.9990845,-0.00636411272,722.9990845,-0.006789605133,722.9990845,0.002137218602,722.9990845,-0.002007624134,
721.9951782,-0.009131718427,721.9951782,-0.006497506052,721.9951782,-0.006935402285,721.9951782,0.002259421861,721.9951782,-0.0008621817688,
720.9910278,-0.008440250531,720.9910278,-0.006208834704,720.9910278,-0.006056564394,720.9910278,0.002454779344,720.9910278,-0.001365252188,
719.9864502,-0.008200421929,719.9864502,-0.006382478867,719.9864502,-0.00632089749,719.9864502,0.002313132631,719.9864502,-0.0009094049456,
719.0174561,-0.009089387022,719.0174561,-0.006749541499,719.0174561,-0.006189337932,719.0174561,0.00239022309,719.0174561,-0.001217211131,
718.012207,-0.007860006765,718.012207,-0.006296864711,718.012207,-0.006214448716,718.012207,0.002586811315,718.012207,-0.0005333375302,
717.0067139,-0.008625084534,717.0067139,-0.007202561945,717.0067139,-0.006469606422,717.0067139,0.001821579295,717.0067139,-0.001721675508,
716.0007935,-0.008133051917,716.0007935,-0.007052626461,716.0007935,-0.006316968706,716.0007935,0.001779521815,716.0007935,-0.0009423650918,
714.9945679,-0.007714061532,714.9945679,-0.006096180994,714.9945679,-0.006732210051,714.9945679,0.002786015626,714.9945679,-0.002150141401,
713.9880371,-0.008071616292,713.9880371,-0.006319468841,713.9880371,-0.006370949093,713.9880371,0.002047298476,713.9880371,-0.001318801194,
713.0170898,-0.008717497811,713.0170898,-0.006924294867,713.0170898,-0.006223175675,713.0170898,0.002691507107,713.0170898,-0.001163154258,
712.0098877,-0.008286678232,712.0098877,-0.006507808808,712.0098877,-0.005953216925,712.0098877,0.002361904597,712.0098877,-0.001522787265,
711.0023193,-0.00810256321,711.0023193,-0.006627646741,711.0023193,-0.005499964114,711.0023193,0.001907552476,711.0023193,-0.001546002459,
709.9944458,-0.008698011748,709.9944458,-0.006636620499,709.9944458,-0.00563551439,709.9944458,0.002132093767,709.9944458,-0.000203623058,
708.9862061,-0.009045884013,708.9862061,-0.00701365713,708.9862061,-0.006303396076,708.9862061,0.001999784028,708.9862061,-0.000342336396,
708.0136108,-0.00785527844,708.0136108,-0.005808570888,708.0136108,-0.005942339543,708.0136108,0.003305658,708.0136108,-0.0008662119508,
707.0047607,-0.008274741471,707.0047607,-0.005732141901,707.0047607,-0.006138397846,707.0047607,0.002237148583,707.0047607,-0.0003052953107,
705.9954834,-0.008838858455,705.9954834,-0.006550800987,705.9954834,-0.006795823108,705.9954834,0.002104832791,705.9954834,-0.001560653211,
704.9860229,-0.009114431217,704.9860229,-0.006806118414,704.9860229,-0.007228683215,704.9860229,0.0009494471597,704.9860229,-0.001051766565,
704.012146,-0.008967994712,704.012146,-0.007178730797,704.012146,-0.006554931868,704.012146,0.002116147894,704.012146,-0.001373199979,
703.0019531,-0.009030418471,703.0019531,-0.007113595027,703.0019531,-0.006596746854,703.0019531,0.00239058747,703.0019531,-0.001084715943,
701.991394,-0.008500161581,701.991394,-0.007417596411,701.991394,-0.007403752767,701.991394,0.002246073447,701.991394,-0.002037409227,
701.0166626,-0.009236593731,701.0166626,-0.006671749055,701.0166626,-0.007717164233,701.0166626,0.002233766019,701.0166626,-0.001162224798,
700.0054932,-0.00863107387,700.0054932,-0.006736390293,700.0054932,-0.006156314164,700.0054932,0.003373872489,700.0054932,-0.0008582032169,
698.9939575,-0.008479751647,698.9939575,-0.006333602127,698.9939575,-0.006636773236,698.9939575,0.001443935558,698.9939575,-0.001892586821,
697.9820557,-0.008079442196,697.9820557,-0.007046462968,697.9820557,-0.006190715823,697.9820557,0.002524344251,697.9820557,-0.001297586947,
697.0060425,-0.009244094603,697.0060425,-0.007187031209,697.0060425,-0.006518161856,697.0060425,0.002581160516,697.0060425,-6.165599916E-005,
695.9935913,-0.008350368589,695.9935913,-0.007186878473,695.9935913,-0.008295566775,695.9935913,0.0008545335149,695.9935913,-0.001503698295,
695.0168457,-0.007506857626,695.0168457,-0.005290626548,695.0168457,-0.004987639841,695.0168457,0.004478819203,695.0168457,-0.0003727532458,
694.0037842,-0.009596644901,694.0037842,-0.007701244671,694.0037842,-0.006482000928,694.0037842,0.001136611681,694.0037842,-0.0009423650918,
692.9902344,-0.009654371068,692.9902344,-0.006276810542,692.9902344,-0.006634224206,692.9902344,0.00267720758,692.9902344,3.041707714E-005,
692.0126343,-0.009139069356,692.0126343,-0.006616225466,692.0126343,-0.006654108409,692.0126343,0.002358469181,692.0126343,-0.0002978453413,
690.9985352,-0.009875836782,690.9985352,-0.008052050136,690.9985352,-0.008645588532,690.9985352,0.001531704329,690.9985352,-0.001851347508,
689.9841309,-0.008024657145,689.9841309,-0.006415332202,689.9841309,-0.006112006493,689.9841309,0.002259239787,689.9841309,-0.001254639123,
689.0056152,-0.008433090523,689.0056152,-0.005774496123,689.0056152,-0.006836544722,689.0056152,0.003063355573,689.0056152,0.001248253277,
687.9904785,-0.009306631051,687.9904785,-0.007687511854,687.9904785,-0.005728770047,687.9904785,0.001373219071,687.9904785,-5.943011638E-005,
687.0113525,-0.008408413269,687.0113525,-0.007059655618,687.0113525,-0.006619590335,687.0113525,0.003065180266,687.0113525,-0.0004556128406,
685.9956665,-0.009587680921,685.9956665,-0.00743199978,685.9956665,-0.007888528518,685.9956665,0.001387008233,685.9956665,-0.00180634053,
685.0158691,-0.008936601691,685.0158691,-0.007536013611,685.0158691,-0.006483531091,685.0158691,0.002392305294,685.0158691,-0.001476611127,
683.9995117,-0.009157826193,683.9995117,-0.00615314953,683.9995117,-0.006797555834,683.9995117,0.002817279659,683.9995117,-0.0009454130195,
682.9828491,-0.009217485785,682.9828491,-0.007363797165,682.9828491,-0.007214833517,682.9828491,0.001902950578,682.9828491,-0.0005594494869,
682.0021973,-0.008860822767,682.0021973,-0.006590678822,682.0021973,-0.007789989933,682.0021973,0.001925388817,682.0021973,-0.001034309622,
680.9848633,-0.008698468097,680.9848633,-0.007008512039,680.9848633,-0.007493321784,680.9848633,0.002506874036,680.9848633,-2.029412462E-005,
680.0036011,-0.008623308502,680.0036011,-0.00622174656,680.0036011,-0.006649417803,680.0036011,0.002326274989,680.0036011,-0.0003764258872,
678.9857178,-0.00874413643,678.9857178,-0.006694180891,678.9857178,-0.007180462126,678.9857178,0.002156078815,678.9857178,-0.001848512096,
678.0037842,-0.008303744718,678.0037842,-0.007826448418,678.0037842,-0.007696005981,678.0037842,0.001024998724,678.0037842,-0.001405660529,
676.9851685,-0.01019303314,676.9851685,-0.008725920692,676.9851685,-0.008116130717,676.9851685,0.001782354899,676.9851685,-0.001223561238,
676.0027466,-0.007169411518,676.0027466,-0.005019882694,676.0027466,-0.005874617491,676.0027466,0.003988049459,676.0027466,0.001028008526,
674.9835205,-0.009454473853,674.9835205,-0.006761978846,674.9835205,-0.006492150947,674.9835205,0.002918069949,674.9835205,-0.0008789739804,
674.0003662,-0.009336933494,674.0003662,-0.006860089023,674.0003662,-0.006937899161,674.0003662,0.003001132747,674.0003662,0.000116243551,
673.0170288,-0.009720139205,673.0170288,-0.006767279934,673.0170288,-0.007291001733,673.0170288,0.002317426493,673.0170288,-0.000804256706,
671.9968262,-0.009395605884,671.9968262,-0.007166203111,671.9968262,-0.006673890166,671.9968262,0.002943479689,671.9968262,0.0001059382994,
671.0128174,-0.008678982034,671.0128174,-0.007776869927,671.0128174,-0.006837666035,671.0128174,0.002336607082,671.0128174,-0.0004566471907,
669.9920654,-0.01007538848,669.9920654,-0.0077955327,669.9920654,-0.007796803955,669.9920654,0.001260454883,669.9920654,-0.00152196188,
669.0075073,-0.007871649228,669.0075073,-0.006909772754,669.0075073,-0.007031333633,669.0075073,0.003414206207,669.0075073,7.841568004E-005,
667.986145,-0.00868354924,667.986145,-0.006352122873,667.986145,-0.006130689755,667.986145,0.002725395607,667.986145,0.0007849761751,
667.0009155,-0.009418961592,667.0009155,-0.007838245481,667.0009155,-0.007906068116,667.0009155,0.002495184075,667.0009155,-0.0002362228697,
666.0154419,-0.008814000525,666.0154419,-0.006676541176,666.0154419,-0.007621790748,666.0154419,0.002411619294,666.0154419,-0.000272390258,
664.9931641,-0.009878924116,664.9931641,-0.006620457396,664.9931641,-0.007479735184,664.9931641,0.003258396871,664.9931641,0.0005903941346,
664.0070801,-0.009371235967,664.0070801,-0.007735778578,664.0070801,-0.006306304131,664.0070801,0.003173563862,664.0070801,-0.0009436049149,
662.9841309,-0.007947041653,662.9841309,-0.006042064633,662.9841309,-0.005969251506,662.9841309,0.003276706208,662.9841309,0.0007930413703,
661.9974365,-0.009767573327,661.9974365,-0.007360640913,661.9974365,-0.00734043261,661.9974365,0.002119633602,661.9974365,0.0003487722424,
661.010498,-0.009487551637,661.010498,-0.007721181959,661.010498,-0.00787398871,661.010498,0.002990133362,661.010498,-0.0007765573682,
659.9866943,-0.008480513468,659.9866943,-0.007507366594,659.9866943,-0.007420752198,659.9866943,0.003312648507,659.9866943,-0.0005444029812,
658.9990845,-0.008631276898,658.9990845,-0.006497863214,658.9990845,-0.006652629934,658.9990845,0.001558410004,658.9990845,-0.0001630509942,
658.0112915,-0.008920625784,658.0112915,-0.005125191994,658.0112915,-0.006651253439,658.0112915,0.00276616402,658.0112915,0.0007734103128,
656.9865723,-0.009102162905,656.9865723,-0.00654391665,656.9865723,-0.006255887914,656.9865723,0.003164307214,656.9865723,0.0007291723741,
655.9980469,-0.008490667678,655.9980469,-0.006705090404,655.9980469,-0.006295333616,655.9980469,0.002967718057,655.9980469,8.602759044E-005,
655.0093384,-0.009182765149,655.0093384,-0.006699635647,655.0093384,-0.007178272121,655.0093384,0.003683906747,655.0093384,0.0005072728381,
653.9837036,-0.00880943425,653.9837036,-0.007131420542,653.9837036,-0.006495415233,653.9837036,0.002833850682,653.9837036,0.0001581920806,
652.9943848,-0.008484930731,652.9943848,-0.007876631804,652.9943848,-0.005871093366,652.9943848,0.003297494026,652.9943848,0.0008897572989,
652.0048218,-0.008584073745,652.0048218,-0.006662725005,652.0048218,-0.006616786122,652.0048218,0.002596290084,652.0048218,0.0006398027181,
651.0149536,-0.00995705463,651.0149536,-0.006980848964,651.0149536,-0.00707213534,651.0149536,0.002947753994,651.0149536,6.316222425E-006,
649.9880371,-0.008820696734,649.9880371,-0.006917518098,649.9880371,-0.006623669527,649.9880371,0.003344602883,649.9880371,0.0001513298484,
648.9976196,-0.009290364571,648.9976196,-0.007059452124,648.9976196,-0.006954814307,648.9976196,0.002771764994,648.9976196,0.0007533652242,
648.0067749,-0.009035134688,648.0067749,-0.00753713306,648.0067749,-0.007085072808,648.0067749,0.004112525377,648.0067749,0.000322529464,
647.0158081,-0.009242573753,647.0158081,-0.00616999343,647.0158081,-0.00588912284,647.0158081,0.002382544568,647.0158081,0.0003936450521,
645.987793,-0.01039339975,645.987793,-0.006781602744,645.987793,-0.006464760751,645.987793,0.003454987193,645.987793,-0.0007246164605,
644.9961548,-0.009481118061,644.9961548,-0.007766393945,644.9961548,-0.006992515642,644.9961548,0.003198467195,644.9961548,0.0004584235139,
644.0042725,-0.009060740471,644.0042725,-0.007073917892,644.0042725,-0.006121297367,644.0042725,0.003345281119,644.0042725,0.001385190408,
643.012085,-0.009777241386,643.012085,-0.007344301324,643.012085,-0.006957769394,643.012085,0.002633947413,643.012085,0.0003988010867,
641.9828491,-0.009270245209,641.9828491,-0.007200932596,641.9828491,-0.006999698468,641.9828491,0.004603017587,641.9828491,0.0007581365644,
640.9901123,-0.008549759164,640.9901123,-0.006072340067,640.9901123,-0.006693569012,640.9901123,0.004613456316,640.9901123,0.001921098679,
639.9970703,-0.009628141299,639.9970703,-0.007822278887,639.9970703,-0.007241107058,639.9970703,0.002786171855,639.9970703,6.624724483E-005,
639.0037231,-0.009588086046,639.0037231,-0.007537438069,639.0037231,-0.006795925088,639.0037231,0.003057698486,639.0037231,0.0001372949919,
638.0101929,-0.009052475914,638.0101929,-0.007170073688,638.0101929,-0.007833261974,638.0101929,0.001433157246,638.0101929,-0.0004985363339,
637.0162964,-0.009769041091,637.0162964,-0.007280921564,637.0162964,-0.00653580809,637.0162964,0.003146315692,637.0162964,0.0009064105107,
635.9852905,-0.01006714348,635.9852905,-0.00797601603,635.9852905,-0.007801685482,635.9852905,0.002684448613,635.9852905,0.0002803060343,
634.9908447,-0.00940670073,634.9908447,-0.007311467081,634.9908447,-0.007165592164,634.9908447,0.003341707401,634.9908447,0.001500324812,
633.9961548,-0.01000218652,633.9961548,-0.007858430967,633.9961548,-0.006823141128,633.9961548,0.003382898867,633.9961548,-0.0003036397684,
633.0010986,-0.008711154573,633.0010986,-0.006845972966,633.0010986,-0.007469150238,633.0010986,0.003126604017,633.0010986,0.001270008739,
632.0057983,-0.009619330987,632.0057983,-0.007326840889,632.0057983,-0.007615787908,632.0057983,0.003026156221,632.0057983,0.0002267426025,
631.0103149,-0.009771319106,631.0103149,-0.008060181513,631.0103149,-0.007557077799,631.0103149,0.00269288756,631.0103149,0.00142881996,
630.0144043,-0.009223871864,630.0144043,-0.007257094141,630.0144043,-0.007173383608,630.0144043,0.003427982097,630.0144043,0.001629546401,
629.0183105,-0.009674421512,629.0183105,-0.00796996709,629.0183105,-0.007063272409,629.0183105,0.003311422653,629.0183105,0.000716933806,
627.9850464,-0.009925581515,627.9850464,-0.007482483052,627.9850464,-0.007398510352,627.9850464,0.002781247953,627.9850464,0.0007620521937,
626.9883423,-0.009742413647,626.9883423,-0.007153471932,626.9883423,-0.007184026763,626.9883423,0.003276080126,626.9883423,0.0008236955618,
625.991394,-0.00917105563,625.991394,-0.007799956482,625.991394,-0.006923224777,625.991394,0.003230856266,625.991394,0.001485467074,
624.9942017,-0.008538743481,624.9942017,-0.006357173901,624.9942017,-0.006713756826,624.9942017,0.003873846726,624.9942017,0.001866292558,
623.9967041,-0.009397075512,623.9967041,-0.006437930278,623.9967041,-0.006684647407,623.9967041,0.003244704567,623.9967041,0.001704332768,
622.9988403,-0.009352134541,622.9988403,-0.008300036192,622.9988403,-0.006679600105,622.9988403,0.003171112854,622.9988403,0.0005770190037,
622.0008545,-0.010087681,622.0008545,-0.006878842134,622.0008545,-0.007355143782,622.0008545,0.003546921536,622.0008545,0.001009300933,
621.0025024,-0.009110528044,621.0025024,-0.006802449003,621.0025024,-0.006512552034,621.0025024,0.004081376828,621.0025024,0.001424171147,
620.0039063,-0.008979861625,620.0039063,-0.007411896251,620.0039063,-0.006920727901,620.0039063,0.003851647256,620.0039063,0.001325103105,
619.0050659,-0.009630723856,619.0050659,-0.007454646751,619.0050659,-0.007199812215,619.0050659,0.003360281,619.0050659,0.0009854311356,
618.0059204,-0.00920298975,618.0059204,-0.007363288198,618.0059204,-0.005668168887,618.0059204,0.003785995068,618.0059204,0.001598575385,
617.0065308,-0.009811053984,617.0065308,-0.006896014791,617.0065308,-0.007173943799,617.0065308,0.004083911888,617.0065308,0.0009851456853,
616.0067749,-0.009656598791,616.0067749,-0.007239172235,616.0067749,-0.006525455043,616.0067749,0.00395589089,616.0067749,0.001410640427,
615.006897,-0.0100499941,615.006897,-0.008166484535,615.006897,-0.006886485964,615.006897,0.003003191901,615.006897,0.002210349077,
614.0066528,-0.009099273011,614.0066528,-0.007574885152,614.0066528,-0.006957412697,614.0066528,0.003908297513,614.0066528,0.002585509326,
613.0062256,-0.009936764836,613.0062256,-0.007491082884,613.0062256,-0.006658034399,613.0062256,0.004353191704,613.0062256,0.001131343073,
612.0054321,-0.009131262079,612.0054321,-0.007237339392,612.0054321,-0.006391865667,612.0054321,0.004283751827,612.0054321,0.00220207544,
611.0043945,-0.009841270745,611.0043945,-0.007866514847,611.0043945,-0.00655075023,611.0043945,0.003865254112,611.0043945,0.00153547118,
610.0031128,-0.01028839964,610.0031128,-0.008076901548,610.0031128,-0.007323837373,610.0031128,0.003136407584,610.0031128,0.001207341556,
609.0014648,-0.009964239784,609.0014648,-0.006783080753,609.0014648,-0.006816566456,609.0014648,0.003838902572,609.0014648,0.001295452006,
607.9996948,-0.009797589853,607.9996948,-0.007854871452,607.9996948,-0.006475574337,607.9996948,0.004038786516,607.9996948,0.001754673896,
606.9976196,-0.009856150486,606.9976196,-0.007492405828,606.9976196,-0.006974990014,606.9976196,0.003625588724,606.9976196,0.001569243381,
605.9953003,-0.01033809688,605.9953003,-0.008435985073,605.9953003,-0.007517899387,605.9953003,0.003061374184,605.9953003,0.001240153681,
604.9926147,-0.009477065876,604.9926147,-0.007248031441,604.9926147,-0.006725379266,604.9926147,0.003987030592,604.9926147,0.002157327486,
603.9896851,-0.009223668836,603.9896851,-0.007390773855,603.9896851,-0.006552943029,603.9896851,0.00355295022,603.9896851,0.001523053972,
602.9865723,-0.009328420274,602.9865723,-0.007567813154,602.9865723,-0.00678226538,602.9865723,0.003117713146,602.9865723,0.00176569412,
601.9830933,-0.009315347299,601.9830933,-0.006358296145,601.9830933,-0.0059827324,601.9830933,0.00357542187,601.9830933,0.002418569522,
601.0166016,-0.009861363098,601.0166016,-0.007727793884,601.0166016,-0.006970047951,601.0166016,0.003942986485,601.0166016,0.001794467564,
600.0126953,-0.00943795871,600.0126953,-0.008143112063,600.0126953,-0.007081711199,600.0126953,0.003699101042,600.0126953,0.002179154661,
599.0084839,-0.01068031415,599.0084839,-0.008678068407,599.0084839,-0.007865396328,599.0084839,0.002861079527,599.0084839,0.001575244707,
598.0039673,-0.01004665531,598.0039673,-0.007857565768,598.0039673,-0.007257348858,598.0039673,0.003861101577,598.0039673,0.002748683793,
596.9992065,-0.00976392813,596.9992065,-0.007265749853,596.9992065,-0.006759022363,596.9992065,0.003675135085,596.9992065,0.002382284263,
595.9942627,-0.009632445872,595.9942627,-0.007637051865,595.9942627,-0.006427626126,595.9942627,0.003492379561,595.9942627,0.002653819043,
594.9890137,-0.01003861241,594.9890137,-0.007852227427,594.9890137,-0.007082526106,594.9890137,0.003877033247,594.9890137,0.002203246113,
593.9834595,-0.01016537007,593.9834595,-0.007029194385,593.9834595,-0.006905390881,593.9834595,0.003648768878,593.9834595,0.001838320284,
593.0149536,-0.01022590231,593.0149536,-0.007860006765,593.0149536,-0.006955374964,593.0149536,0.003090520389,593.0149536,0.002154491842,
592.0089111,-0.009542152286,592.0089111,-0.007528889924,592.0089111,-0.006875427905,592.0089111,0.00423719408,592.0089111,0.002532754326,
591.0026245,-0.01026160177,591.0026245,-0.008036854677,591.0026245,-0.007626114879,591.0026245,0.003462893423,591.0026245,0.002028416842,
589.9960938,-0.009436438791,589.9960938,-0.007579362486,589.9960938,-0.006817891728,589.9960938,0.004870499484,589.9960938,0.002944235457,
588.9892578,-0.01044631936,588.9892578,-0.008182945661,588.9892578,-0.007257807069,588.9892578,0.003407005221,588.9892578,0.002220652299,
587.9821777,-0.00965948496,587.9821777,-0.007962342352,587.9821777,-0.007146444172,587.9821777,0.003855407936,587.9821777,0.002278625732,
587.012207,-0.009757246822,587.012207,-0.007051556837,587.012207,-0.006397783756,587.012207,0.003831694601,587.012207,0.003122745082,
586.0046387,-0.009539062157,586.0046387,-0.00779807521,586.0046387,-0.00731798308,586.0046387,0.003992908634,586.0046387,0.002828926314,
584.9968262,-0.01015419234,584.9968262,-0.008484371938,584.9968262,-0.006771612447,584.9968262,0.004310234915,584.9968262,0.003151843324,
583.9887085,-0.009669763036,583.9887085,-0.007537387311,583.9887085,-0.00576151954,583.9887085,0.00422067428,583.9887085,0.003033533227,
583.0177002,-0.0105731599,583.0177002,-0.007846837863,583.0177002,-0.006940344814,583.0177002,0.003870686516,583.0177002,0.003334638197,
582.0090942,-0.01035083644,582.0090942,-0.007662638556,582.0090942,-0.007276441436,582.0090942,0.003885782789,582.0090942,0.003499581944,
581.0003052,-0.01028617471,581.0003052,-0.007782768924,581.0003052,-0.006496180315,581.0003052,0.004428396467,581.0003052,0.003052406479,
579.9911499,-0.01023722999,579.9911499,-0.008292519487,579.9911499,-0.00697198417,579.9911499,0.003703826573,579.9911499,0.002472351771,
578.9818115,-0.009766357951,578.9818115,-0.007318899501,578.9818115,-0.00685937563,578.9818115,0.004128492437,578.9818115,0.002745896578,
578.0095825,-0.009990449063,578.0095825,-0.00775769772,578.0095825,-0.006573799998,578.0095825,0.004360434599,578.0095825,0.003486612579,
576.9997559,-0.01035275683,576.9997559,-0.007259080186,576.9997559,-0.006906205788,576.9997559,0.003836708842,576.9997559,0.003302110825,
575.989624,-0.009993787855,575.989624,-0.007490014192,575.989624,-0.006331051234,575.989624,0.004396545235,575.989624,0.003674116917,
575.0166626,-0.009874875657,575.0166626,-0.007456834894,575.0166626,-0.006899072323,575.0166626,0.004467363469,575.0166626,0.003629582468,
574.0061035,-0.01044768374,574.0061035,-0.007645954378,574.0061035,-0.006816515699,574.0061035,0.004281660542,574.0061035,0.003728446783,
572.9952393,-0.009731023572,572.9952393,-0.008022624068,572.9952393,-0.006796689704,572.9952393,0.005119836889,572.9952393,0.003695210908,
571.9841309,-0.009641712531,571.9841309,-0.006972697563,571.9841309,-0.006595829036,571.9841309,0.00477231713,571.9841309,0.004154731054,
571.0102539,-0.01031873375,571.0102539,-0.008199457079,571.0102539,-0.007038669195,571.0102539,0.004120313097,571.0102539,0.003479619278,
569.9985962,-0.01035670005,569.9985962,-0.007928182371,569.9985962,-0.007177865133,569.9985962,0.004733532201,569.9985962,0.003292903304,
568.9868164,-0.01054395456,568.9868164,-0.007277357858,568.9868164,-0.006904524285,568.9868164,0.004334209953,568.9868164,0.003134191269,
568.012146,-0.01068698242,568.012146,-0.008447511122,568.012146,-0.007649159059,568.012146,0.00414571492,568.012146,0.004136437085,
566.9998169,-0.01044667326,566.9998169,-0.007523343898,566.9998169,-0.006553402171,566.9998169,0.003958712332,566.9998169,0.003788501956,
565.9871826,-0.01010078192,565.9871826,-0.007740152534,565.9871826,-0.007261065766,565.9871826,0.003845457686,565.9871826,0.003548200475,
565.0118408,-0.01033971459,565.0118408,-0.007686952129,565.0118408,-0.006917568855,565.0118408,0.004586379044,565.0118408,0.003663387615,
563.9988403,-0.01030791458,563.9988403,-0.008012408391,563.9988403,-0.006961845327,563.9988403,0.004844270181,563.9988403,0.004516639747,
562.9855347,-0.01005500276,562.9855347,-0.007269364316,562.9855347,-0.006506023463,562.9855347,0.004963781219,562.9855347,0.004211551975,
562.0095215,-0.009611329995,562.0095215,-0.007313248701,562.0095215,-0.006604293827,562.0095215,0.005262218881,562.0095215,0.005018036813,
560.9956665,-0.01011696737,560.9956665,-0.008168312721,560.9956665,-0.006581143476,560.9956665,0.004504869692,560.9956665,0.004034710582,
559.9816284,-0.01013133209,559.9816284,-0.007859040983,559.9816284,-0.006159325596,559.9816284,0.004729711451,559.9816284,0.005212229211,
559.0048218,-0.009959534742,559.0048218,-0.00778820971,559.0048218,-0.005893821828,559.0048218,0.00487683434,559.0048218,0.005028930958,
557.9903564,-0.01035594195,557.9903564,-0.007764156442,557.9903564,-0.006061771885,557.9903564,0.005247520283,557.9903564,0.004772709683,
557.0131836,-0.01081794407,557.0131836,-0.00807954371,557.0131836,-0.006906919181,557.0131836,0.004913982935,557.0131836,0.004609060939,
555.9981689,-0.01041013002,555.9981689,-0.008658225648,555.9981689,-0.006911454257,555.9981689,0.005169108976,555.9981689,0.004576202482,
554.9828491,-0.01109120529,554.9828491,-0.008353720419,554.9828491,-0.006790216547,554.9828491,0.004715187475,554.9828491,0.004217250273,
554.0049438,-0.01071728859,554.0049438,-0.00782304164,554.0049438,-0.007119757589,554.0049438,0.005055852234,554.0049438,0.004824690521,
552.9892578,-0.01034527551,552.9892578,-0.008081830107,552.9892578,-0.006828543264,552.9892578,0.004079130013,552.9892578,0.004481722135,
552.0108643,-0.009745299816,552.0108643,-0.007043865044,552.0108643,-0.006229402032,552.0108643,0.005249642301,552.0108643,0.004634020384,
550.9946899,-0.0105502205,550.9946899,-0.008357224055,550.9946899,-0.007214528043,550.9946899,0.004615287296,550.9946899,0.005265625194,
550.0159302,-0.01014372334,550.0159302,-0.007803566754,550.0159302,-0.006104195956,550.0159302,0.004956423771,550.0159302,0.005221582484,
548.9992065,-0.01038591843,548.9992065,-0.007554635871,548.9992065,-0.006849947851,548.9992065,0.004640273284,548.9992065,0.00538098067,
547.9822388,-0.01061019488,547.9822388,-0.007593047805,547.9822388,-0.006915428676,547.9822388,0.004982738756,547.9822388,0.005318398587,
547.0027466,-0.01022453699,547.0027466,-0.007731201127,547.0027466,-0.006523670163,547.0027466,0.004442779813,547.0027466,0.004810687155,
545.9853516,-0.01011251658,545.9853516,-0.007722860668,545.9853516,-0.006579205394,545.9853516,0.004983236082,545.9853516,0.0056245015,
545.0053711,-0.01036397927,545.0053711,-0.007941602729,545.0053711,-0.007036224008,545.0053711,0.005310746841,545.0053711,0.005165362731,
543.9875488,-0.01094770525,543.9875488,-0.008572703227,543.9875488,-0.007423245814,543.9875488,0.004391551018,543.9875488,0.004821052309,
543.0070801,-0.01129060239,543.0070801,-0.008232122287,543.0070801,-0.006703051273,543.0070801,0.004758917261,543.0070801,0.005046031438,
541.9887695,-0.01088217273,541.9887695,-0.008815725334,541.9887695,-0.007424518466,541.9887695,0.004785560537,541.9887695,0.004816105124,
541.0079346,-0.009187174961,541.0079346,-0.007301488891,541.0079346,-0.005932329688,541.0079346,0.005301103927,541.0079346,0.005564584862,
539.9890747,-0.009723480791,539.9890747,-0.00766955642,539.9890747,-0.006110372953,539.9890747,0.00578611996,539.9890747,0.005862806458,
539.0078125,-0.01039193384,539.0078125,-0.007079673465,539.0078125,-0.006337786093,539.0078125,0.005108050536,539.0078125,0.005285355728,
537.9885254,-0.01114863157,537.9885254,-0.008587220684,537.9885254,-0.007556213066,537.9885254,0.005058707204,537.9885254,0.005381321069,
537.0068359,-0.01093235798,537.0068359,-0.008127309382,537.0068359,-0.006640801206,537.0068359,0.005249720998,537.0068359,0.00575146731,
535.9870605,-0.01030043233,535.9870605,-0.007667369209,535.9870605,-0.006200515199,535.9870605,0.0047185109,535.9870605,0.005434816703,
535.0048218,-0.01048467867,535.0048218,-0.008717142045,535.0048218,-0.007152809761,535.0048218,0.004566104617,535.0048218,0.005445589777,
533.9846191,-0.01086288504,533.9846191,-0.008279922418,533.9846191,-0.007112576161,533.9846191,0.004954303149,533.9846191,0.00560347084,
533.0020142,-0.009487196803,533.0020142,-0.007123017218,533.0020142,-0.005522047635,533.0020142,0.005641730502,533.0020142,0.006399858277,
531.9813843,-0.01024456136,531.9813843,-0.007693106774,531.9813843,-0.006302171387,531.9813843,0.005282289814,531.9813843,0.005793832708,
530.998291,-0.011357788,530.998291,-0.009115952067,530.998291,-0.006656046025,530.998291,0.004239076283,530.998291,0.005459902342,
530.0150146,-0.01172843203,530.0150146,-0.008662082255,530.0150146,-0.008085083216,530.0150146,0.004689726047,530.0150146,0.005039903335,
528.9937134,-0.0102956295,528.9937134,-0.007818262093,528.9937134,-0.006821204443,528.9937134,0.005325657316,528.9937134,0.006559558213,
528.0099487,-0.009589402936,528.0099487,-0.007182855159,528.0099487,-0.005652685184,528.0099487,0.005634361412,528.0099487,0.006234912667,
526.9880981,-0.009754765779,526.9880981,-0.00754400203,526.9880981,-0.006231137086,526.9880981,0.005291172769,526.9880981,0.00722968718,
526.0039063,-0.01040901802,526.0039063,-0.007387822028,526.0039063,-0.006383243948,526.0039063,0.004642262124,526.0039063,0.006831588224,
524.9816895,-0.01017523184,524.9816895,-0.007526346017,524.9816895,-0.005705521908,524.9816895,0.005896549206,524.9816895,0.006905855611,
523.9970703,-0.01045789383,523.9970703,-0.008012052625,523.9970703,-0.006377479061,523.9970703,0.005293163937,523.9970703,0.006274015643,
523.0122681,-0.01036044117,523.0122681,-0.007677746005,523.0122681,-0.005901891273,523.0122681,0.005064390134,523.0122681,0.006338653155,
521.9893188,-0.01055451576,521.9893188,-0.007655008696,521.9893188,-0.006225421093,521.9893188,0.005879703909,521.9893188,0.007005810272,
521.0040894,-0.01005221996,521.0040894,-0.007997059263,521.0040894,-0.005695966538,521.0040894,0.005884689279,521.0040894,0.007438906934,
520.0186157,-0.01055512205,520.0186157,-0.007950904779,520.0186157,-0.006291200407,520.0186157,0.005774892401,520.0186157,0.006809026469,
518.9950562,-0.01095674094,518.9950562,-0.008024758659,518.9950562,-0.006511888932,518.9950562,0.005693448242,518.9950562,0.007007231005,
518.0090332,-0.010520407,518.0090332,-0.007770970929,518.0090332,-0.006300895475,518.0090332,0.005666224752,518.0090332,0.007159943692,
516.9850464,-0.01031292044,516.9850464,-0.007816025056,516.9850464,-0.006234556437,516.9850464,0.005556273274,516.9850464,0.006917401683,
515.9987793,-0.01092296746,515.9987793,-0.008328174241,515.9987793,-0.006404976826,515.9987793,0.005717027467,515.9987793,0.007813314907,
515.012207,-0.01027762983,515.012207,-0.008659951389,515.012207,-0.005831864197,515.012207,0.005184564739,515.012207,0.007172102109,
513.9875488,-0.01083955634,513.9875488,-0.008341835812,513.9875488,-0.005791763775,513.9875488,0.005910010543,513.9875488,0.007177812979,
513.0004883,-0.01037156209,513.0004883,-0.007579769474,513.0004883,-0.006111444905,513.0004883,0.006695972756,513.0004883,0.008240016177,
512.0133057,-0.01010487881,512.0133057,-0.007795176469,512.0133057,-0.00623277016,512.0133057,0.006075279322,512.0133057,0.007842439227,
510.9880371,-0.01053359639,510.9880371,-0.008210176602,510.9880371,-0.005951735657,510.9880371,0.005801519379,510.9880371,0.008263522759,
510.0003967,-0.01048387028,510.0003967,-0.007752307225,510.0003967,-0.006053398829,510.0003967,0.006084362045,510.0003967,0.008557082154,
509.0126038,-0.01039228775,509.0126038,-0.008081119508,509.0126038,-0.00607882347,509.0126038,0.006181160919,509.0126038,0.008037951775,
507.9865417,-0.0102851633,507.9865417,-0.00801403448,507.9865417,-0.006001012865,507.9865417,0.006150520407,507.9865417,0.009212243371,
506.9983521,-0.01029734779,506.9983521,-0.008156881668,506.9983521,-0.005671439227,506.9983521,0.006910300348,506.9983521,0.008555366658,
506.0099182,-0.01076825056,506.0099182,-0.008146058768,506.0099182,-0.006090259179,506.0099182,0.006544237491,506.0099182,0.008860695176,
504.9832153,-0.0108011784,504.9832153,-0.007859854028,504.9832153,-0.005575462244,504.9832153,0.00635144487,504.9832153,0.009907959029,
503.9943848,-0.01022762153,503.9943848,-0.007289321627,503.9943848,-0.00517609762,503.9943848,0.007110734936,503.9943848,0.009783611633,
503.0053406,-0.01048841886,503.0053406,-0.007337683812,503.0053406,-0.005588598084,503.0053406,0.006571542006,503.0053406,0.009349229746,
502.0160828,-0.01086960081,502.0160828,-0.008247006685,502.0160828,-0.005764636211,502.0160828,0.006379236933,502.0160828,0.008942312561,
500.9885559,-0.01077466458,500.9885559,-0.008701969869,500.9885559,-0.006646409631,500.9885559,0.006177511532,500.9885559,0.008343576454,
499.9989014,-0.01092013996,499.9989014,-0.00799045153,499.9989014,-0.00628227042,499.9989014,0.006309734657,499.9989014,0.0096195722,
499.0089722,-0.01087601297,499.0089722,-0.00827565603,499.0089722,-0.005928908009,499.0089722,0.00736265257,499.0089722,0.01000532228,
498.0188904,-0.01119131874,498.0188904,-0.008793250658,498.0188904,-0.006398089696,498.0188904,0.006334056612,498.0188904,0.009809902869,
496.9905396,-0.01033475995,496.9905396,-0.007686647121,496.9905396,-0.005716967396,496.9905396,0.006436375435,496.9905396,0.01019624621,
495.9999695,-0.01011909172,495.9999695,-0.007428895216,495.9999695,-0.005173181649,495.9999695,0.00714925956,495.9999695,0.01057733782,
495.0093079,-0.01017502882,495.0093079,-0.007793447468,495.0093079,-0.005888765212,495.0093079,0.007065478712,495.0093079,0.01003663428,
494.0184021,-0.01139525976,494.0184021,-0.008558439091,494.0184021,-0.006371051073,494.0184021,0.007601886988,494.0184021,0.009992899373,
492.9891663,-0.01209583972,492.9891663,-0.00944788754,492.9891663,-0.007196706254,492.9891663,0.006686429959,492.9891663,0.0102160424,
491.9978638,-0.01089787483,491.9978638,-0.007815363817,491.9978638,-0.005486263428,491.9978638,0.007272749674,491.9978638,0.01036925241,
491.0063782,-0.01026792172,491.0063782,-0.007378405426,491.0063782,-0.005017323885,491.0063782,0.007152417209,491.0063782,0.01068556961,
490.0145874,-0.01109786611,490.0145874,-0.008277535439,490.0145874,-0.005809234921,490.0145874,0.00677544903,490.0145874,0.0108097773,
488.9845886,-0.01171306148,488.9845886,-0.009146166034,488.9845886,-0.006157488097,488.9845886,0.006508368067,488.9845886,0.01095247176,
487.9924316,-0.01156427246,487.9924316,-0.008570927195,487.9924316,-0.005694382824,487.9924316,0.007183734328,487.9924316,0.01095589623,
487.0001526,-0.01028273627,487.0001526,-0.007560588419,487.0001526,-0.005289705936,487.0001526,0.007116866298,487.0001526,0.01061155461,
486.0076294,-0.010752948,486.0076294,-0.008598843589,486.0076294,-0.005729894154,486.0076294,0.0083635794,486.0076294,0.01187545806,
485.0149536,-0.01133332588,485.0149536,-0.009053946473,485.0149536,-0.0065011275,485.0149536,0.008498106152,485.0149536,0.01094171964,
483.9837646,-0.0103425961,483.9837646,-0.007689953316,483.9837646,-0.005136038642,483.9837646,0.00822500512,483.9837646,0.01188971847,
482.9906921,-0.009834741242,482.9906921,-0.007280361373,482.9906921,-0.004609146621,482.9906921,0.008026032709,482.9906921,0.01174706221,
481.997345,-0.01036504097,481.997345,-0.008009359241,481.997345,-0.005318653304,481.997345,0.008189602755,481.997345,0.01155306306,
481.0038147,-0.01029370818,481.0038147,-0.007556365803,481.0038147,-0.00528638158,481.0038147,0.008022156544,481.0038147,0.01202475652,
480.0101318,-0.01003309805,480.0101318,-0.007783226203,480.0101318,-0.005176711828,480.0101318,0.008447875269,480.0101318,0.01299147401,
479.0162659,-0.01056815777,479.0162659,-0.007787040435,479.0162659,-0.004921713844,479.0162659,0.008830498904,479.0162659,0.01303927321,
477.9838867,-0.01026023645,477.9838867,-0.007545375731,477.9838867,-0.005189808086,477.9838867,0.008570732549,477.9838867,0.01289506536,
476.989624,-0.01068501174,476.989624,-0.00794185698,476.989624,-0.00542220287,476.989624,0.008584725671,476.989624,0.01317595039,
475.9951172,-0.01068137493,475.9951172,-0.008017490618,475.9951172,-0.006089646835,475.9951172,0.0078331884,475.9951172,0.01277788356,
475.0004272,-0.009852809832,475.0004272,-0.006992973853,475.0004272,-0.004244524986,475.0004272,0.009043979459,475.0004272,0.01401512511,
474.0055237,-0.01041412354,474.0055237,-0.007567915134,474.0055237,-0.004816560075,474.0055237,0.009072737768,474.0055237,0.01417160593,
473.010498,-0.01067662705,473.010498,-0.007826499641,473.010498,-0.004866375588,473.010498,0.008948178962,473.010498,0.01368680969,
472.0151672,-0.01035053283,472.0151672,-0.007915727794,472.0151672,-0.005415095948,472.0151672,0.008590085432,472.0151672,0.01436153427,
470.9814758,-0.01063353568,470.9814758,-0.007730946876,470.9814758,-0.00448659854,470.9814758,0.00958704669,470.9814758,0.01417740993,
469.9858704,-0.01038288511,469.9858704,-0.0081520034,469.9858704,-0.005309089553,469.9858704,0.009119604714,469.9858704,0.0140738124,
468.9899597,-0.009998138994,468.9899597,-0.007461720612,468.9899597,-0.004614474252,468.9899597,0.009147098288,468.9899597,0.0146833444,
467.9939575,-0.01077860408,467.9939575,-0.008192700334,467.9939575,-0.005287199747,467.9939575,0.008641996421,467.9939575,0.01501166355,
466.9977417,-0.009901089594,466.9977417,-0.007127091289,466.9977417,-0.004344743211,466.9977417,0.009757930413,466.9977417,0.01566837542,
466.0013123,-0.01041447744,466.0013123,-0.007461873349,466.0013123,-0.004679678474,466.0013123,0.009752423503,466.0013123,0.01569754817,
465.0046692,-0.01089711767,465.0046692,-0.007896815427,465.0046692,-0.004956776742,465.0046692,0.009479643777,465.0046692,0.01506775152,
464.0078735,-0.01056937035,464.0078735,-0.007719808724,464.0078735,-0.004846408963,464.0078735,0.01009277254,464.0078735,0.01532542799,
463.0108948,-0.01081466116,463.0108948,-0.008038227446,463.0108948,-0.004579486325,463.0108948,0.01011110749,463.0108948,0.01596067473,
462.0137329,-0.0107417861,462.0137329,-0.008182844147,462.0137329,-0.004837858956,462.0137329,0.009742893279,462.0137329,0.01626488753,
461.0163574,-0.01142582018,461.0163574,-0.008262956515,461.0163574,-0.004777338356,461.0163574,0.01043879706,461.0163574,0.01630872115,
460.0187988,-0.01067748573,460.0187988,-0.008057996631,460.0187988,-0.00416541053,460.0187988,0.01086742338,460.0187988,0.0165711958,
458.9826355,-0.009665814228,458.9826355,-0.007634356152,458.9826355,-0.003449804615,458.9826355,0.01067901682,458.9826355,0.01688022353,
457.9847107,-0.01009961776,457.9847107,-0.007315336261,457.9847107,-0.003807447152,457.9847107,0.01049212366,457.9847107,0.01731918938,
456.9866333,-0.01012602076,456.9866333,-0.007632982451,456.9866333,-0.004300609231,456.9866333,0.01116011944,456.9866333,0.01739979908,
455.9882813,-0.01010057889,455.9882813,-0.007640307769,455.9882813,-0.004476811271,455.9882813,0.01110862289,455.9882813,0.01803760417,
454.9898071,-0.01052308548,454.9898071,-0.007592538837,454.9898071,-0.004135617521,454.9898071,0.01119722519,454.9898071,0.01860898174,
453.9911194,-0.0104331784,453.9911194,-0.007509350777,453.9911194,-0.003853837959,453.9911194,0.01152063161,453.9911194,0.01871472038,
452.9923096,-0.01048963144,452.9923096,-0.007548275869,452.9923096,-0.004138232674,452.9923096,0.0117017189,452.9923096,0.01909189485,
451.9932251,-0.010344062,451.9932251,-0.007190646604,451.9932251,-0.003852862865,451.9932251,0.01208046079,451.9932251,0.01973322034,
450.993988,-0.01016041357,450.993988,-0.007611209527,450.993988,-0.004075563047,450.993988,0.01294045337,450.993988,0.02017687261,
449.9946289,-0.01013684459,449.9946289,-0.007622757461,449.9946289,-0.004085409921,449.9946289,0.01274050958,449.9946289,0.02054305188,
448.9950256,-0.01019672491,448.9950256,-0.007907389663,448.9950256,-0.004224478733,448.9950256,0.01279627904,448.9950256,0.02083476633,
447.9952393,-0.01022630744,447.9952393,-0.008021709509,447.9952393,-0.003864152124,447.9952393,0.01240601856,447.9952393,0.02111958526,
446.9952393,-0.01088808011,446.9952393,-0.007323481143,446.9952393,-0.004479886033,446.9952393,0.01317312196,446.9952393,0.0213896893,
445.9951477,-0.01063004974,445.9951477,-0.007796854712,445.9951477,-0.003754122416,445.9951477,0.01269802079,445.9951477,0.02187856473,
444.994812,-0.01017513033,444.994812,-0.007960359566,444.994812,-0.003219948616,444.994812,0.01386089157,444.994812,0.02256756462,
443.9942932,-0.01078673452,443.9942932,-0.007556365803,443.9942932,-0.003413900733,443.9942932,0.01390199736,443.9942932,0.02325378172,
442.9935913,-0.01065864321,442.9935913,-0.007859091274,442.9935913,-0.003850656329,442.9935913,0.01410509739,442.9935913,0.0240123719,
441.9927673,-0.01068890188,441.9927673,-0.007934689522,441.9927673,-0.003680514172,441.9927673,0.01414922159,441.9927673,0.02458956093,
440.9916687,-0.01020380389,440.9916687,-0.007321597543,440.9916687,-0.003379843431,440.9916687,0.01521187834,440.9916687,0.02550787106,
439.990448,-0.01044535916,439.990448,-0.008420040831,439.990448,-0.003582966514,439.990448,0.01498765405,439.990448,0.02528707683,
438.9890442,-0.01071840059,438.9890442,-0.007792938966,438.9890442,-0.003024573205,438.9890442,0.01517137233,438.9890442,0.0257445164,
437.9875183,-0.01053758804,437.9875183,-0.007489556447,437.9875183,-0.00308014662,437.9875183,0.01601229236,437.9875183,0.02706181817,
436.9856873,-0.01009390224,436.9856873,-0.007321139332,436.9856873,-0.003124764888,436.9856873,0.01666355506,436.9856873,0.0276938118,
435.9837341,-0.01056906767,435.9837341,-0.007345166523,435.9837341,-0.002993775997,435.9837341,0.01601763815,435.9837341,0.0282413587,
434.9816589,-0.01002191752,434.9816589,-0.007105293218,434.9816589,-0.002578339539,434.9816589,0.01700718515,434.9816589,0.02863508463,
434.0179138,-0.01045243535,434.0179138,-0.007587349974,434.0179138,-0.003198878374,434.0179138,0.01741569676,434.0179138,0.02902820148,
433.0154419,-0.01077072509,433.0154419,-0.007209538016,433.0154419,-0.002407543361,433.0154419,0.01765527762,433.0154419,0.03050383553,
432.0127869,-0.0105957957,432.0127869,-0.007242838386,432.0127869,-0.002428188687,432.0127869,0.01857926138,432.0127869,0.03116458468,
431.0099792,-0.01090448909,431.0099792,-0.007501616608,431.0099792,-0.003198210383,431.0099792,0.01812711731,431.0099792,0.03116672672,
430.0069885,-0.01047891751,430.0069885,-0.006898409687,430.0069885,-0.002108668908,430.0069885,0.01840087585,430.0069885,0.03259973601,
429.0037842,-0.01027009636,429.0037842,-0.007052575704,429.0037842,-0.002062864136,429.0037842,0.01978130639,429.0037842,0.03377059475,
428.0004272,-0.01060185861,428.0004272,-0.007640664,428.0004272,-0.002029731404,428.0004272,0.01980420016,428.0004272,0.03385730833,
426.9969482,-0.01043231972,426.9969482,-0.007184433751,426.9969482,-0.002086926484,426.9969482,0.02017660066,426.9969482,0.03515185416,
425.9932861,-0.01032146439,425.9932861,-0.007225170266,425.9932861,-0.002161990153,425.9932861,0.02147603594,425.9932861,0.03560626507,
424.9894104,-0.01041735802,424.9894104,-0.007229854353,424.9894104,-0.001505349297,424.9894104,0.02141881362,424.9894104,0.03750653192,
423.9853821,-0.01047123596,423.9853821,-0.007097806316,423.9853821,-0.001169969793,423.9853821,0.02195346355,423.9853821,0.03852110356,
422.9811707,-0.01075522043,422.9811707,-0.007042642683,422.9811707,-0.001537541975,422.9811707,0.02205822244,422.9811707,0.04020514339,
422.0154114,-0.01050519664,422.0154114,-0.007160550449,422.0154114,-0.001530835405,422.0154114,0.02303303778,422.0154114,0.04072693363,
421.0108032,-0.01010816637,421.0108032,-0.006770797074,421.0108032,-0.001475733938,421.0108032,0.02381793037,421.0108032,0.04206624627,
420.0061035,-0.01028612442,420.0061035,-0.006071114913,420.0061035,-0.00068895187,420.0061035,0.02401538193,420.0061035,0.04348028451,
419.0012207,-0.009341291152,419.0012207,-0.006473534275,419.0012207,-7.692628424E-005,419.0012207,0.0253634993,419.0012207,0.0456093736,
417.9961853,-0.01005004533,417.9961853,-0.006048395298,417.9961853,-0.0003420260036,417.9961853,0.02560055815,417.9961853,0.04687113315,
416.9909363,-0.01004913449,416.9909363,-0.006171780173,416.9909363,-0.0001620676921,416.9909363,0.02687842585,416.9909363,0.04908360913,
415.9855042,-0.009883630089,415.9855042,-0.006463893689,415.9855042,0.0002983864979,415.9855042,0.02713634819,415.9855042,0.05078480765,
415.0186768,-0.01049185544,415.0186768,-0.006850151811,415.0186768,-0.0004549922305,415.0186768,0.02828116715,415.0186768,0.05278231204,
414.0129089,-0.01065071207,414.0129089,-0.006994655356,414.0129089,-0.0001916691836,414.0129089,0.02912762202,414.0129089,0.05500121042,
413.007019,-0.009864854626,413.007019,-0.006668027025,413.007019,0.000672286842,413.007019,0.03056918085,413.007019,0.05828389153,
412.000946,-0.01083920337,412.000946,-0.006878842134,412.000946,8.309475561E-006,412.000946,0.03152481467,412.000946,0.06083335355,
410.9946899,-0.01068546623,410.9946899,-0.006938000675,410.9946899,0.0002181699529,410.9946899,0.03269009665,410.9946899,0.06341869384,
409.9882813,-0.009838840924,409.9882813,-0.006390947383,409.9882813,0.001045237877,409.9882813,0.03448196128,409.9882813,0.0669715479,
408.9817505,-0.0102044614,408.9817505,-0.006904880982,408.9817505,0.0009340115939,408.9817505,0.03538845107,408.9817505,0.07091420889,
408.0137024,-0.01085329149,408.0137024,-0.006983294152,408.0137024,0.0009267998394,408.0137024,0.03742619604,408.0137024,0.07547222823,
407.0068359,-0.01019728091,407.0068359,-0.00658649765,407.0068359,0.001349459053,407.0068359,0.03992890194,407.0068359,0.08031561226,
405.9997559,-0.01013264712,405.9997559,-0.006400946528,405.9997559,0.001700304681,405.9997559,0.04152586684,405.9997559,0.08445119113,
404.9925232,-0.01109645329,404.9925232,-0.00731253624,404.9925232,0.001613281202,404.9925232,0.04326980934,404.9925232,0.09020549804,
403.9851379,-0.01016911212,403.9851379,-0.006230983883,403.9851379,0.002537206747,403.9851379,0.04658347368,403.9851379,0.09724982828,
403.0163269,-0.01051424164,403.0163269,-0.006653649732,403.0163269,0.002847165335,403.0163269,0.04836637154,403.0163269,0.1024530232,
402.0086365,-0.009810700081,402.0086365,-0.006316509563,402.0086365,0.003535203636,402.0086365,0.05221568421,402.0086365,0.1112605482,
401.0007629,-0.01046517119,401.0007629,-0.007040400989,401.0007629,0.004085165914,401.0007629,0.05567087978,401.0007629,0.1187071055,
399.9926758,-0.01059801877,399.9926758,-0.006428697612,399.9926758,0.004633653909,399.9926758,0.05871516839,399.9926758,0.1280505806,
398.9844971,-0.01041442715,398.9844971,-0.006850712467,398.9844971,0.005869234446,398.9844971,0.06327842921,398.9844971,0.1376075745,
398.0149231,-0.01164613292,398.0149231,-0.007437394466,398.0149231,0.005526384339,398.0149231,0.0670042634,398.0149231,0.1476705819,
397.0063782,-0.01087212469,397.0063782,-0.007131369319,397.0063782,0.006857306696,397.0063782,0.07279354334,397.0063782,0.160089016,
395.9977112,-0.01093977876,395.9977112,-0.007203682326,395.9977112,0.008105278946,395.9977112,0.07756444812,395.9977112,0.1716358364,
394.9888306,-0.01229321677,394.9888306,-0.007417851128,394.9888306,0.008367115632,394.9888306,0.08407014608,394.9888306,0.1843159944,
394.0186462,-0.01136141922,394.0186462,-0.00695573166,394.0186462,0.01001822297,394.0186462,0.08887367696,394.0186462,0.1973478943,
393.009491,-0.01104224939,393.009491,-0.00695140101,393.009491,0.01214972138,393.009491,0.09774858505,393.009491,0.2133542597,
392.0001526,-0.01111679059,392.0001526,-0.007412455976,392.0001526,0.01369765587,392.0001526,0.1045854166,392.0001526,0.2322439253,
390.9906921,-0.01002945565,390.9906921,-0.006151414011,390.9906921,0.01635583863,390.9906921,0.1115666106,390.9906921,0.2471574247,
389.9810486,-0.0114926314,389.9810486,-0.006795925088,389.9810486,0.01785318181,389.9810486,0.1199564561,389.9810486,0.2662673593,
389.0100708,-0.01209176145,389.0100708,-0.007610853296,389.0100708,0.01962027326,389.0100708,0.1305280924,389.0100708,0.2876091003,
388.0001221,-0.01165858191,388.0001221,-0.007835499942,388.0001221,0.02345879003,388.0001221,0.1424962729,388.0001221,0.3103446364,
386.9900208,-0.01103548612,386.9900208,-0.007014319301,386.9900208,0.02731907554,386.9900208,0.1542536318,386.9900208,0.3346834481,
386.0186462,-0.01141195279,386.0186462,-0.007628658321,386.0186462,0.03063139878,386.0186462,0.1648871601,386.0186462,0.3560430706,
385.0082092,-0.01190799382,385.0082092,-0.00811313279,385.0082092,0.03396262974,385.0082092,0.1789992303,385.0082092,0.385004729,
383.9976196,-0.01296416111,383.9976196,-0.008666903712,383.9976196,0.03872546554,383.9976196,0.1954633445,383.9976196,0.4157583714,
382.986908,-0.01306334138,382.986908,-0.008876446635,382.986908,0.04470301047,382.986908,0.2109731585,382.986908,0.4455185533,
382.0148926,-0.01269086916,382.0148926,-0.008608335629,382.0148926,0.05065563694,382.0148926,0.229159683,382.0148926,0.4805466235,
381.0038452,-0.01342836767,381.0038452,-0.009294570424,381.0038452,0.05771303177,381.0038452,0.2498089969,381.0038452,0.5140354037,
379.9926453,-0.01406969503,379.9926453,-0.01008651685,379.9926453,0.0657736063,379.9926453,0.2713466883,379.9926453,0.5469118357,
378.9812927,-0.01463374775,378.9812927,-0.010861421,378.9812927,0.07551486045,378.9812927,0.2969022691,378.9812927,0.5892471075,
378.008728,-0.01546648983,378.008728,-0.01069066953,378.008728,0.08375670761,378.008728,0.3213002682,378.008728,0.6317694783,
376.9970703,-0.01507572178,376.9970703,-0.01029239316,376.9970703,0.09698870778,376.9970703,0.3491411507,376.9970703,0.6752395034,
375.9852905,-0.01493568346,375.9852905,-0.01070046891,375.9852905,0.1090193391,375.9852905,0.380740881,375.9852905,0.7215179801,
375.012207,-0.01627150923,375.012207,-0.01119419467,375.012207,0.1244082972,375.012207,0.4147816002,375.012207,0.7687267065,
374.0001221,-0.01686806977,374.0001221,-0.01203924231,374.0001221,0.1401035488,374.0001221,0.450653702,374.0001221,0.8222985268,
372.987854,-0.0189361982,372.987854,-0.0132005699,372.987854,0.1573472917,372.987854,0.4939298034,372.987854,0.8830502629,
372.0144043,-0.01903888024,372.0144043,-0.01351574901,372.0144043,0.1788074523,372.0144043,0.537096262,372.0144043,0.9403349757,
371.0018616,-0.01966742985,371.0018616,-0.01368669793,371.0018616,0.1984294206,371.0018616,0.5844533443,371.0018616,1.000877023,
369.9891663,-0.02123897709,369.9891663,-0.0151053248,369.9891663,0.2216361761,369.9891663,0.6292821765,369.9891663,1.062247515,
369.0152588,-0.02221231908,369.0152588,-0.01611035503,369.0152588,0.2458488047,369.0152588,0.6839654446,369.0152588,1.131616473,
368.0022583,-0.02359963767,368.0022583,-0.01579255983,368.0022583,0.2753844857,368.0022583,0.7405690551,368.0022583,1.188622713,
366.9891052,-0.02513579093,366.9891052,-0.01715521887,366.9891052,0.3039343357,366.9891052,0.8053736091,366.9891052,1.262451768,
366.014801,-0.02536430024,366.014801,-0.0176444985,366.014801,0.3363543153,366.014801,0.8609507084,366.014801,1.324504375,
365.0013428,-0.02738545649,365.0013428,-0.01896424964,365.0013428,0.3686117232,365.0013428,0.934145391,365.0013428,1.415452838,
363.987793,-0.0292297136,363.987793,-0.02018799074,363.987793,0.4069020748,363.987793,1.003568888,363.987793,1.483257294,
363.013031,-0.03126393259,363.013031,-0.02168984711,363.013031,0.4478845596,363.013031,1.077460527,363.013031,1.556095243,
361.999115,-0.03330640867,361.999115,-0.02264139429,361.999115,0.488789022,361.999115,1.150357485,361.999115,1.634351015,
360.9851074,-0.03400141373,360.9851074,-0.02307642624,360.9851074,0.5288566947,360.9851074,1.224305153,360.9851074,1.719520211,
360.0099792,-0.03645920008,360.0099792,-0.02466721088,360.0099792,0.5703853965,360.0099792,1.312959909,360.0099792,1.808664322,
358.995636,-0.03930130601,358.995636,-0.02593275718,358.995636,0.6316434741,358.995636,1.408466816,358.995636,1.87705946,
357.9812012,-0.04273232073,357.9812012,-0.02834009193,357.9812012,0.6807261109,357.9812012,1.506521583,357.9812012,2.000939608,
357.0055847,-0.04249384999,357.0055847,-0.02748052403,357.0055847,0.7286564708,357.0055847,1.592644572,357.0055847,2.085673571,
355.9908447,-0.04598161951,355.9908447,-0.02942642383,355.9908447,0.7850391269,355.9908447,1.688975453,355.9908447,2.120690346,
355.0150146,-0.04865445569,355.0150146,-0.03086726181,355.0150146,0.8470611572,355.0150146,1.794677496,355.0150146,2.243777752,
353.9999695,-0.05115647987,353.9999695,-0.03188947961,353.9999695,0.9095518589,353.9999695,1.881471038,353.9999695,2.273952723,
352.9848022,-0.05413184315,352.9848022,-0.03351470083,352.9848022,0.9667133689,352.9848022,2.021220684,352.9848022,2.45799017,
352.0085144,-0.05678166449,352.0085144,-0.03469540179,352.0085144,1.044648409,352.0085144,2.113447905,352.0085144,2.567157269,
350.993042,-0.05908888951,350.993042,-0.03511361405,350.993042,1.098559141,350.993042,2.216173649,350.993042,2.580083609,
350.01651,-0.06128191948,350.01651,-0.03603375331,350.01651,1.16165328,350.01651,2.309510946,350.01651,2.584102869,
349.000824,-0.06383313984,349.000824,-0.03657628596,349.000824,1.238885283,349.000824,2.58761692,349.000824,2.799936771,
347.9849243,-0.06787010282,347.9849243,-0.0382264331,347.9849243,1.30581522,347.9849243,2.603009939,347.9849243,2.87172389,
347.0079651,-0.06997695565,347.0079651,-0.03865305334,347.0079651,1.383814931,347.0079651,2.67300415,347.0079651,3.107967854,
345.9918213,-0.07196941972,345.9918213,-0.03816863894,345.9918213,1.445253372,345.9918213,2.727234602,345.9918213,2.984927177,
345.0146179,-0.07344636321,345.0146179,-0.03823819011,345.0146179,1.514864922,345.0146179,2.918404341,345.0146179,2.976512909,
343.9981995,-0.07441051304,343.9981995,-0.03627569973,343.9981995,1.597061753,343.9981995,3.054260492,343.9981995,3.521871805,
342.9816284,-0.07557926327,342.9816284,-0.03547660634,342.9816284,1.657335281,342.9816284,2.966412067,342.9816284,4.076573372,
342.0040283,-0.07632851601,342.0040283,-0.03440001234,342.0040283,1.720336795,342.0040283,3.378074169,342.0040283,3.451003551,
340.9871521,-0.07549642771,340.9871521,-0.03078325465,340.9871521,1.781092525,340.9871521,10,340.9871521,3.10861969,
340.0093079,-0.07535577565,340.0093079,-0.02907794714,340.0093079,1.843364358,340.0093079,3.030755758,340.0093079,3.306362867,
338.9921875,-0.07458940893,338.9921875,-0.02572474815,338.9921875,1.879651785,338.9921875,3.235896587,338.9921875,3.593180656,
338.0140686,-0.07150779665,338.0140686,-0.02025559172,338.0140686,1.922600746,338.0140686,3.367293358,338.0140686,3.648784161,
336.9966736,-0.06966620684,336.9966736,-0.01566428877,336.9966736,2.020597696,336.9966736,3.168290615,336.9966736,3.119159698,
336.01828,-0.06555695832,336.01828,-0.01088802982,336.01828,2.089072704,336.01828,3.118842125,336.01828,4.213584423,
335.0006104,-0.06009329855,335.0006104,-0.002918238984,335.0006104,2.103445053,335.0006104,3.873564005,335.0006104,3.843102455,
333.9828186,-0.05326276645,333.9828186,0.006704989355,333.9828186,2.104518414,333.9828186,3.749536276,333.9828186,3.216888666,
333.0040283,-0.04368619621,333.0040283,0.01677737758,333.0040283,2.175409317,333.0040283,3.87426877,333.0040283,3.302786112,
331.9859924,-0.03328233585,331.9859924,0.0285920091,331.9859924,2.22179842,331.9859924,3.621855021,331.9859924,4.08404541,
331.0069275,-0.02130434662,331.0069275,0.04287536442,331.0069275,2.325204849,331.0069275,3.652750254,331.0069275,3.268380165,
329.9886475,-0.00722735934,329.9886475,0.05882805586,329.9886475,2.318154573,329.9886475,10,329.9886475,10,
329.0093689,0.00908796303,329.0093689,0.07701429725,329.0093689,2.31404376,329.0093689,3.372813463,329.0093689,3.298201799,
327.9907532,0.03214625269,327.9907532,0.0976645872,327.9907532,2.41535759,327.9907532,3.410833836,327.9907532,10,
327.0112305,0.05701311305,327.0112305,0.1234141067,327.0112305,2.415248156,327.0112305,10,327.0112305,3.901130199,
325.9924011,0.09407033026,325.9924011,0.1478978693,325.9924011,2.406591415,325.9924011,3.319827557,325.9924011,3.812874794,
325.0126038,0.1135924682,325.0126038,0.1806598902,325.0126038,2.467573643,325.0126038,10,325.0126038,10,
323.9934692,0.1517558545,323.9934692,0.215165332,323.9934692,2.487844229,323.9934692,3.44964242,323.9934692,3.246605158,
323.0134277,0.1903663725,323.0134277,0.2530091405,323.0134277,2.472937346,323.0134277,3.417256594,323.0134277,3.318865061,
321.9941101,0.2379827201,321.9941101,0.3017307222,321.9941101,2.485363007,321.9941101,3.941997528,321.9941101,4.231058121,
321.0138245,0.2869442105,321.0138245,0.3476779759,321.0138245,2.452152967,321.0138245,3.577609062,321.0138245,3.089499235,
319.9941711,0.3474666774,319.9941711,0.4026438594,319.9941711,2.510720968,319.9941711,3.076381922,319.9941711,3.508201838,
319.0136414,0.4109531939,319.0136414,0.4641199112,319.0136414,2.530004263,319.0136414,10,319.0136414,3.36749959,
317.9937439,0.4871225357,317.9937439,0.5336439013,317.9937439,2.597114086,317.9937439,10,317.9937439,3.181883812,
317.01297,0.5565192103,317.01297,0.6009355187,317.01297,2.589449883,317.01297,10,317.01297,2.938529491,
315.9928589,0.6378326416,315.9928589,0.6715726256,315.9928589,2.431173801,315.9928589,3.119125128,315.9928589,3.099446058,
315.0118408,0.7160115838,315.0118408,0.7481818199,315.0118408,2.504836082,315.0118408,3.22971487,315.0118408,3.07018137,
313.9914551,0.7997537851,313.9914551,0.8313168883,313.9914551,2.482671738,313.9914551,3.205557823,313.9914551,2.925726891,
313.0101929,0.8989667892,313.0101929,0.917696476,313.0101929,2.528491735,313.0101929,3.14097476,313.0101929,2.912198067,
311.989563,0.9917622209,311.989563,1.00419867,311.989563,2.535230398,311.989563,3.213910103,311.989563,2.849099398,
311.0080566,1.078255296,311.0080566,1.079600096,311.0080566,2.518178463,311.0080566,3.075690985,311.0080566,2.770119667,
309.9871521,1.172253609,309.9871521,1.169496298,309.9871521,2.549347639,309.9871521,3.29205513,309.9871521,2.770004034,
309.0054321,1.257881403,309.0054321,1.260214925,309.0054321,2.481829405,309.0054321,3.042376757,309.0054321,2.713492632,
307.984314,1.353549957,307.984314,1.338344455,307.984314,2.507543325,307.984314,2.990936756,307.984314,2.623329163,
307.0023193,1.438349962,307.0023193,1.418014765,307.0023193,2.464803457,307.0023193,2.985202312,307.0023193,2.546522617,
305.980957,1.531103253,305.980957,1.497839808,305.980957,2.445087671,305.980957,2.94878602,305.980957,2.500066042,
304.9987488,1.61036098,304.9987488,1.578129649,304.9987488,2.452777624,304.9987488,2.857629061,304.9987488,2.476804972,
304.0164185,1.69144845,304.0164185,1.644210935,304.0164185,2.454066992,304.0164185,2.722361565,304.0164185,2.370546341,
302.9947205,1.771887302,302.9947205,1.729552031,302.9947205,2.401679277,302.9947205,2.676469088,302.9947205,2.328609705,
302.012146,1.844971657,302.012146,1.792843103,302.012146,2.418140888,302.012146,2.706263542,302.012146,2.269276381,
300.9901428,1.910865307,300.9901428,1.858529091,300.9901428,2.399655581,300.9901428,2.599856615,300.9901428,2.234648466,
300.0073547,1.987008095,300.0073547,1.929682493,300.0073547,2.423453569,300.0073547,2.536523581,300.0073547,2.151040316,
298.9851074,2.053689957,298.9851074,2.004513025,298.9851074,2.357288361,298.9851074,2.500374079,298.9851074,2.106876373,
298.0021057,2.132921696,298.0021057,2.066884995,298.0021057,2.371131659,298.0021057,2.397381544,298.0021057,2.037332296,
297.0189819,2.188238144,297.0189819,2.120752573,297.0189819,2.338930845,297.0189819,2.354409218,297.0189819,1.987408042,
295.9963989,2.238521099,295.9963989,2.179602385,295.9963989,2.36423254,295.9963989,2.307889462,295.9963989,1.923071265,
295.0130615,2.309860945,295.0130615,2.221086502,295.0130615,2.312903166,295.0130615,2.252978325,295.0130615,1.875185251,
293.9902344,2.354050398,293.9902344,2.29002738,293.9902344,2.300479174,293.9902344,2.163841248,293.9902344,1.822338223,
293.0066223,2.418950796,293.0066223,2.306934357,293.0066223,2.286095619,293.0066223,2.098270893,293.0066223,1.754108667,
291.9836121,2.490812778,291.9836121,2.396408796,291.9836121,2.267938614,291.9836121,2.034976721,291.9836121,1.703807235,
290.9997864,2.575306892,290.9997864,2.432429075,290.9997864,2.254028797,290.9997864,1.991820693,290.9997864,1.661809444,
290.0158997,2.556205034,290.0158997,2.48730588,290.0158997,2.218406439,290.0158997,1.90950191,290.0158997,1.615120173,
288.9924622,2.639815331,288.9924622,2.525856972,288.9924622,2.219529629,288.9924622,1.85235393,288.9924622,1.559824586,
288.0083618,2.708650589,288.0083618,2.575869083,288.0083618,2.198077202,288.0083618,1.788116574,288.0083618,1.503460169,
286.9847412,2.804018974,286.9847412,2.611178398,286.9847412,2.190010548,286.9847412,1.737508178,286.9847412,1.455110312,
286.0003967,2.829327583,286.0003967,2.727162361,286.0003967,2.166308641,286.0003967,1.692529559,286.0003967,1.422228575,
285.0158997,2.903513908,285.0158997,2.744957685,285.0158997,2.137000322,285.0158997,1.629518509,285.0158997,1.371816397,
283.9919434,2.864615679,283.9919434,2.721090317,283.9919434,2.115294695,283.9919434,1.576604962,283.9919434,1.325596571,
283.0072327,2.906453371,283.0072327,2.916771412,283.0072327,2.102339268,283.0072327,1.519534945,283.0072327,1.279482484,
281.9830627,3.031203985,281.9830627,2.868641138,281.9830627,2.092217445,281.9830627,1.47425437,281.9830627,1.248933673,
280.9981689,3.067122698,280.9981689,2.915235043,280.9981689,2.053625345,280.9981689,1.430524707,280.9981689,1.204322219,
280.0131531,2.961003065,280.0131531,2.953088284,280.0131531,2.030384302,280.0131531,1.372830868,280.0131531,1.171028137,
278.9886169,3.140407324,278.9886169,2.93210125,278.9886169,2.000234842,278.9886169,1.326323152,278.9886169,1.130847812,
278.0033875,2.999075413,278.0033875,2.961788893,278.0033875,1.989978313,278.0033875,1.285630465,278.0033875,1.106197953,
277.0180664,3.166876554,277.0180664,2.924187899,277.0180664,1.95137012,277.0180664,1.234801412,277.0180664,1.081319571,
275.9931946,3.156674385,275.9931946,2.941859961,275.9931946,1.932797194,275.9931946,1.196427941,275.9931946,1.06140995,
275.0076294,3.214444876,275.0076294,3.128138781,275.0076294,1.891705275,275.0076294,1.155923843,275.0076294,1.03992033,
273.982605,3.223606825,273.982605,2.974302053,273.982605,1.874184489,273.982605,1.119080663,273.982605,1.028589249,
272.9968567,3.325246096,272.9968567,3.108481646,272.9968567,1.838702679,272.9968567,1.083679914,272.9968567,1.015452027,
272.0109863,3.122564793,272.0109863,3.137288094,272.0109863,1.807175398,272.0109863,1.052575946,272.0109863,1.014788389,
270.9855652,3.131101608,270.9855652,2.984672785,270.9855652,1.780154228,270.9855652,1.032263875,270.9855652,1.023052335,
269.9994812,3.219905615,269.9994812,2.998903275,269.9994812,1.734748602,269.9994812,1.00976038,269.9994812,1.037190795,
269.0133362,2.932543039,269.0133362,2.926282406,269.0133362,1.70271349,269.0133362,0.988039732,269.0133362,1.059632778,
267.9876404,2.982721806,267.9876404,2.828130722,267.9876404,1.675510049,267.9876404,0.9836841822,267.9876404,1.096735358,
267.0012817,2.893993139,267.0012817,2.881236076,267.0012817,1.633206487,267.0012817,0.9825861454,267.0012817,1.13898766,
266.0147705,2.901167154,266.0147705,2.733164072,266.0147705,1.604817152,266.0147705,0.9878758788,266.0147705,1.187352419,
264.988739,2.852898836,264.988739,2.694509983,264.988739,1.57812655,264.988739,1.004415751,264.988739,1.260002255,
264.0020752,2.747428894,264.0020752,2.657026052,264.0020752,1.546480298,264.0020752,1.034797788,264.0020752,1.350384831,
263.0152893,2.691777229,263.0152893,2.527680874,263.0152893,1.520554185,263.0152893,1.08121419,263.0152893,1.447148085,
261.9889526,2.579244852,261.9889526,2.445377827,261.9889526,1.50296104,261.9889526,1.142995954,261.9889526,1.564310074,
261.0019836,2.494268656,261.0019836,2.340015411,261.0019836,1.48900342,261.0019836,1.220059395,261.0019836,1.702436805,
260.0148926,2.405052423,260.0148926,2.27477622,260.0148926,1.488037944,260.0148926,1.298014164,260.0148926,1.839078069,
258.9882202,2.335768938,258.9882202,2.174587727,258.9882202,1.500812411,258.9882202,1.408394575,258.9882202,1.995112896,
258.000946,2.213345528,258.000946,2.08614254,258.000946,1.5215379,258.000946,1.545860529,258.000946,2.169734001,
257.0135803,2.110812187,257.0135803,1.991047144,257.0135803,1.554349184,257.0135803,1.714082837,257.0135803,2.345878363,
255.986618,2.009783983,255.986618,1.907712579,255.986618,1.605720997,255.986618,1.904463291,255.986618,2.551069975,
254.9990692,1.910425305,254.9990692,1.815743923,254.9990692,1.67856288,254.9990692,2.133207321,254.9990692,2.813618422,
254.0113831,1.813886762,254.0113831,1.721081853,254.0113831,1.770210147,254.0113831,2.338234663,254.0113831,2.982251644,
252.9841003,1.719606042,252.9841003,1.631772399,252.9841003,1.891413093,252.9841003,2.664027929,252.9841003,3.288595438,
251.9962616,1.640280008,251.9962616,1.576105595,251.9962616,1.988653064,251.9962616,2.783679008,251.9962616,3.328256369,
251.0082855,1.558896542,251.0082855,1.509063005,251.0082855,2.109337807,251.0082855,3.137000799,251.0082855,3.482956886,
249.9806824,1.473920345,249.9806824,1.417892098,249.9806824,2.260589123,249.9806824,3.232051134,249.9806824,10,
248.9925537,1.395939589,248.9925537,1.354357004,248.9925537,2.399456501,248.9925537,3.350423813,248.9925537,3.588139057,
248.0043182,1.325288177,248.0043182,1.295543671,248.0043182,2.530653238,248.0043182,3.605102062,248.0043182,3.643887281,
247.015976,1.270687699,247.015976,1.250254393,247.015976,2.641895056,247.015976,3.643442392,247.015976,4.070429802,
245.9880371,1.222634196,245.9880371,1.212452292,245.9880371,2.746354103,245.9880371,10,245.9880371,3.644317865,
244.9994812,1.171613693,244.9994812,1.163526058,244.9994812,2.858343124,244.9994812,3.56835413,244.9994812,10,
244.0108795,1.130170345,244.0108795,1.13721776,244.0108795,2.928000212,244.0108795,3.920188189,244.0108795,3.853704214,
242.9826355,1.100052714,242.9826355,1.115984082,242.9826355,2.980364084,242.9826355,3.601154804,242.9826355,4.161824703,
241.9938049,1.090128422,241.9938049,1.110740185,241.9938049,3.055929899,241.9938049,10,241.9938049,3.972342253,
241.0049133,1.085380673,241.0049133,1.11291647,241.0049133,2.958734274,241.0049133,3.752086163,241.0049133,4.136902332,
240.0159302,1.09663105,240.0159302,1.128042579,240.0159302,3.128661633,240.0159302,10,240.0159302,10,
238.9873047,1.126856089,238.9873047,1.161129475,238.9873047,3.057518005,238.9873047,3.862314224,238.9873047,3.734096527,
237.9981537,1.182335734,237.9981537,1.219313025,237.9981537,3.212109566,237.9981537,3.445236444,237.9981537,10,
237.0088654,1.257852912,237.0088654,1.319193602,237.0088654,3.119386911,237.0088654,3.24307394,237.0088654,3.274776697,
236.0195465,1.36129427,236.0195465,1.382856011,236.0195465,3.043857574,236.0195465,3.415204763,236.0195465,3.249839544,
234.990509,1.534050345,234.990509,1.529856443,234.990509,3.112606049,234.990509,3.552227259,234.990509,3.667347908,
234.0009613,1.668382287,234.0009613,1.683931708,234.0009613,3.549310446,234.0009613,3.814658403,234.0009613,4.107786655,
233.0113678,1.886260271,233.0113678,1.888016582,233.0113678,3.048353434,233.0113678,3.287008286,233.0113678,4.068860054,
231.9820862,2.180063009,231.9820862,2.134295702,231.9820862,3.322194338,231.9820862,10,231.9820862,3.802768469,
230.9922791,2.459737539,230.9922791,2.409902573,230.9922791,10,230.9922791,10,230.9922791,10,
230.0024109,2.690864563,230.0024109,2.72466445,230.0024109,3.596111059,230.0024109,3.499248505,230.0024109,3.633622646,
229.0124359,2.87935853,229.0124359,2.914563894,229.0124359,3.475490332,229.0124359,3.662419796,229.0124359,10,
227.9827728,3.004833937,227.9827728,2.97154808,227.9827728,3.316241503,227.9827728,3.406254292,227.9827728,3.886095762,
226.99263,10,226.99263,3.268850088,226.99263,10,226.99263,3.250521898,226.99263,10,
226.0023804,3.703329325,226.0023804,3.712162018,226.0023804,3.684638262,226.0023804,3.76586628,226.0023804,10,
225.012085,10,225.012085,3.487105846,225.012085,3.832686663,225.012085,3.8047297,225.012085,3.856586456,
223.9820557,3.541012526,223.9820557,3.685555458,223.9820557,3.595118523,223.9820557,3.774601936,223.9820557,10,
222.9915771,4.042517662,222.9915771,10,222.9915771,10,222.9915771,3.712667227,222.9915771,10,
222.0009918,3.689667225,222.0009918,3.482389927,222.0009918,3.910344839,222.0009918,3.664192438,222.0009918,3.924396276,
221.0103455,3.596201897,221.0103455,3.332206726,221.0103455,4.222440243,221.0103455,3.527717352,221.0103455,3.344239712,
220.0196075,3.363772631,220.0196075,3.102283955,220.0196075,3.430803061,220.0196075,3.580917597,220.0196075,3.858512402,
218.9891815,3.703864813,218.9891815,3.268794298,218.9891815,3.156270504,218.9891815,3.419989109,218.9891815,3.656529427,
217.9982452,3.17220664,217.9982452,3.229130268,217.9982452,3.239008427,217.9982452,3.596807718,217.9982452,3.199524641,
217.0072632,3.339029551,217.0072632,10,217.0072632,3.200812817,217.0072632,3.719202042,217.0072632,10,
216.0161896,3.234019279,216.0161896,3.133924484,216.0161896,3.798388958,216.0161896,3.724259853,216.0161896,3.362552643,
214.9853973,3.131427288,214.9853973,3.645762682,214.9853973,10,214.9853973,2.987147331,214.9853973,3.09492898,
213.9941559,3.261595726,213.9941559,3.469305515,213.9941559,3.31697607,213.9941559,3.709688902,213.9941559,3.41924262,
213.0028534,3.227810144,213.0028534,3.12165308,213.0028534,3.231304169,213.0028534,10,213.0028534,3.653497934,
212.0114441,10,212.0114441,3.140454054,212.0114441,3.507209301,212.0114441,3.737973213,212.0114441,3.227186441,
210.9803162,3.752935886,210.9803162,3.103712559,210.9803162,3.733011246,210.9803162,3.59227109,210.9803162,4.061067581,
209.9887543,3.359640837,209.9887543,3.528123617,209.9887543,3.199625731,209.9887543,3.062905788,209.9887543,3.961602688,
208.9971161,3.384640694,208.9971161,3.294768095,208.9971161,3.22789979,208.9971161,3.298782587,208.9971161,3.735555172,
208.0053864,3.223824978,208.0053864,3.746913195,208.0053864,3.660088778,208.0053864,3.248208046,208.0053864,3.702054501,
207.0136108,3.139075041,207.0136108,3.382786036,207.0136108,10,207.0136108,3.243130207,207.0136108,10,
205.9820557,3.37072134,205.9820557,3.054594517,205.9820557,3.534487247,205.9820557,3.358510256,205.9820557,3.338248491,
204.9901276,3.780022621,204.9901276,3.125227451,204.9901276,3.17484045,204.9901276,3.399488926,204.9901276,3.775936365,
203.9980774,3.246765375,203.9980774,3.036638498,203.9980774,3.44957757,203.9980774,3.314427853,203.9980774,3.248157978,
203.0059814,3.048125267,203.0059814,3.206127644,203.0059814,3.413341761,203.0059814,3.220567703,203.0059814,3.367497921,
202.0137939,3.289155006,202.0137939,3.679012537,202.0137939,3.694778919,202.0137939,3.394133568,202.0137939,3.188673735,
200.981842,3.220449924,200.981842,3.231267214,200.981842,2.955417633,200.981842,3.39179635,200.981842,3.27289319,
199.989502,3.206530333,199.989502,3.039849997,199.989502,3.139373541,199.989502,3.218235493,199.989502,3.834190369,

1.79.,
1.79.
Collection Time: 11/19/2015 4:19:08 PM
Operator Name  :
Scan Version 5.0.0.999
Parameter List :
Instrument  Cary 60
Instrument Version  2.00
Start (nm)  800.0
Stop (nm)  200.0
X Mode  Nanometers
Y Mode  Abs
UV-Vis Scan Rate (nm/min)  4800.000
UV-Vis Data Interval (nm)  1.00
UV-Vis Ave. Time (sec)  0.0125
Beam Mode  Dual Beam
Baseline Correction  On
Baseline Type  Baseline correction
Baseline File Name
Baseline Std Ref File Name
Cycle Mode  Off
Method Log     :
Method Name    :
Date/Time stamp: 11/19/2015 3:38:46 PM
Method Modifications:
Common Interval nm Changed: 11/19/2015 4:18:09 PM, Old:     5.00, New:     1.00
Baseline Correction Changed: 11/19/2015 4:18:09 PM, Old:0, New:1
End Method Modifications
<Current Wavelength> , 232.4

3.04,
3.04
Collection Time: 11/19/2015 4:21:18 PM
Operator Name  :
Scan Version 5.0.0.999
Parameter List :
Instrument  Cary 60
Instrument Version  2.00
Start (nm)  800.0
Stop (nm)  200.0
X Mode  Nanometers
Y Mode  Abs
UV-Vis Scan Rate (nm/min)  4800.000
UV-Vis Data Interval (nm)  1.00
UV-Vis Ave. Time (sec)  0.0125
Beam Mode  Dual Beam
Baseline Correction  On
Baseline Type  Baseline correction
Baseline File Name
Baseline Std Ref File Name
Cycle Mode  Off
Method Log     :
Method Name    :
Date/Time stamp: 11/19/2015 3:38:46 PM
Method Modifications:
Common Interval nm Changed: 11/19/2015 4:18:09 PM, Old:     5.00, New:     1.00
Baseline Correction Changed: 11/19/2015 4:18:09 PM, Old:0, New:1
End Method Modifications
<Current Wavelength> , 262.0

5.96,
5.96
Collection Time: 11/19/2015 4:22:35 PM
Operator Name  :
Scan Version 5.0.0.999
Parameter List :
Instrument  Cary 60
Instrument Version  2.00
Start (nm)  800.0
Stop (nm)  200.0
X Mode  Nanometers
Y Mode  Abs
UV-Vis Scan Rate (nm/min)  4800.000
UV-Vis Data Interval (nm)  1.00
UV-Vis Ave. Time (sec)  0.0125
Beam Mode  Dual Beam
Baseline Correction  On
Baseline Type  Baseline correction
Baseline File Name
Baseline Std Ref File Name
Cycle Mode  Off
Method Log     :
Method Name    :
Date/Time stamp: 11/19/2015 3:38:46 PM
Method Modifications:
Common Interval nm Changed: 11/19/2015 4:18:09 PM, Old:     5.00, New:     1.00
Baseline Correction Changed: 11/19/2015 4:18:09 PM, Old:0, New:1
End Method Modifications
<Current Wavelength> , 292.0

8.92,
8.92
Collection Time: 11/19/2015 4:23:53 PM
Operator Name  :
Scan Version 5.0.0.999
Parameter List :
Instrument  Cary 60
Instrument Version  2.00
Start (nm)  800.0
Stop (nm)  200.0
X Mode  Nanometers
Y Mode  Abs
UV-Vis Scan Rate (nm/min)  4800.000
UV-Vis Data Interval (nm)  1.00
UV-Vis Ave. Time (sec)  0.0125
Beam Mode  Dual Beam
Baseline Correction  On
Baseline Type  Baseline correction
Baseline File Name
Baseline Std Ref File Name
Cycle Mode  Off
Method Log     :
Method Name    :
Date/Time stamp: 11/19/2015 3:38:46 PM
Method Modifications:
Common Interval nm Changed: 11/19/2015 4:18:09 PM, Old:     5.00, New:     1.00
Baseline Correction Changed: 11/19/2015 4:18:09 PM, Old:0, New:1
End Method Modifications
<Current Wavelength> , 287.0

11.91,
11.91
Collection Time: 11/19/2015 4:25:04 PM
Operator Name  :
Scan Version 5.0.0.999
Parameter List :
Instrument  Cary 60
Instrument Version  2.00
Start (nm)  800.0
Stop (nm)  200.0
X Mode  Nanometers
Y Mode  Abs
UV-Vis Scan Rate (nm/min)  4800.000
UV-Vis Data Interval (nm)  1.00
UV-Vis Ave. Time (sec)  0.0125
Beam Mode  Dual Beam
Baseline Correction  On
Baseline Type  Baseline correction
Baseline File Name
Baseline Std Ref File Name
Cycle Mode  Off
Method Log     :
Method Name    :
Date/Time stamp: 11/19/2015 3:38:46 PM
Method Modifications:
Common Interval nm Changed: 11/19/2015 4:18:09 PM, Old:     5.00, New:     1.00
Baseline Correction Changed: 11/19/2015 4:18:09 PM, Old:0, New:1
End Method Modifications
<Current Wavelength> , 205.0

