1.02,,2.93,,5.94,,9.30,,11.93,,
Wavelength (nm),Abs,Wavelength (nm),Abs,Wavelength (nm),Abs,Wavelength (nm),Abs,Wavelength (nm),Abs,
800.0020752,-0.009868600406,800.0020752,0.004125957843,800.0020752,-0.0005024665152,800.0020752,-0.01016941573,800.0020752,-0.05020602047,
798.991272,-0.01004817337,798.991272,0.005212438758,798.991272,0.001566151856,798.991272,-0.008211141452,798.991272,-0.04972001538,
798.0149536,-0.01103589032,798.0149536,0.005257790908,798.0149536,0.0004993166076,798.0149536,-0.00900313817,798.0149536,-0.0492875874,
797.003418,-0.009808422066,797.003418,0.003808765905,797.003418,0.0008986804169,797.003418,-0.008085489273,797.003418,-0.04874581099,
795.9914551,-0.008901250549,795.9914551,0.006255894899,795.9914551,0.001621829462,795.9914551,-0.007219722029,795.9914551,-0.04599004984,
795.0140381,-0.01028233208,795.0140381,0.003017945215,795.0140381,0.0001066632904,795.0140381,-0.008487113751,795.0140381,-0.05015048757,
794.0012817,-0.01217347197,794.0012817,0.0040243119,794.0012817,0.0007054475718,794.0012817,-0.009210136719,794.0012817,-0.05033665895,
792.9880981,-0.009004760534,792.9880981,0.00702809263,792.9880981,0.002263975563,792.9880981,-0.006597817875,792.9880981,-0.0487353541,
792.0095215,-0.009692344815,792.0095215,0.008051401004,792.0095215,0.002347798087,792.0095215,-0.006470983848,792.0095215,-0.04683688655,
790.9955444,-0.01093644742,790.9955444,0.004000014625,790.9955444,0.0004481878714,790.9955444,-0.01065020636,790.9955444,-0.05102452263,
790.0162354,-0.009795565158,790.0162354,0.007358071394,790.0162354,0.002925367095,790.0162354,-0.00860422384,790.0162354,-0.04843560979,
789.0014648,-0.01047790702,789.0014648,0.007756100502,789.0014648,0.002373018302,789.0014648,-0.007595947478,789.0014648,-0.04743526503,
787.9863892,-0.01099041197,787.9863892,0.004712623078,787.9863892,0.001435702434,787.9863892,-0.01043100562,787.9863892,-0.04783851653,
787.0057983,-0.0124972444,787.0057983,0.004996616859,787.0057983,-0.0003324556455,787.0057983,-0.009542861022,787.0057983,-0.04997937381,
785.9898682,-0.007945618592,785.9898682,0.007979204878,785.9898682,0.002860037144,785.9898682,-0.005731529091,785.9898682,-0.04886967316,
785.008667,-0.01098117419,785.008667,0.006823199801,785.008667,0.002401962178,785.008667,-0.008680706844,785.008667,-0.04762566462,
783.9918823,-0.01041796524,783.9918823,0.007683795411,783.9918823,0.003611519467,783.9918823,-0.006528310943,783.9918823,-0.04751880467,
783.0100098,-0.01025169156,783.0100098,0.009270364419,783.0100098,0.003596563358,783.0100098,-0.006683118176,783.0100098,-0.04600090161,
781.9924927,-0.01092826854,781.9924927,0.009030500427,781.9924927,0.003616713919,781.9924927,-0.007286572363,781.9924927,-0.04759221151,
781.0097656,-0.009918446653,781.0097656,0.007813262753,781.0097656,0.003445437411,781.0097656,-0.006260787137,781.0097656,-0.0472323373,
779.9914551,-0.01134376694,779.9914551,0.008623354137,779.9914551,0.004948699847,779.9914551,-0.008052914403,779.9914551,-0.04801997915,
779.0079346,-0.009786757641,779.0079346,0.009114951827,779.0079346,0.00456194533,779.0079346,-0.006283750292,779.0079346,-0.04727584496,
777.9889526,-0.01195811015,777.9889526,0.007861812599,777.9889526,0.002315318678,777.9889526,-0.006563601084,777.9889526,-0.04803861305,
777.0046387,-0.009752892889,777.0046387,0.009657128714,777.0046387,0.002603581641,777.0046387,-0.004023502115,777.0046387,-0.04686872289,
775.9848633,-0.01081794407,775.9848633,0.006123740692,775.9848633,0.003108613892,775.9848633,-0.006123900414,775.9848633,-0.04776278511,
774.9998779,-0.01171195321,774.9998779,0.009121323004,774.9998779,0.002621915424,774.9998779,-0.006939070765,774.9998779,-0.04872720689,
774.0144653,-0.01125947852,774.0144653,0.01017488725,774.0144653,0.004490013234,774.0144653,-0.006190358661,774.0144653,-0.04611954093,
772.9934692,-0.008812529035,772.9934692,0.0096147554,772.9934692,0.006135528907,772.9934692,-0.00393542042,772.9934692,-0.0455314666,
772.0073853,-0.009563068859,772.0073853,0.01218196005,772.0073853,0.003075868823,772.0073853,-0.005391524173,772.0073853,-0.04723707214,
770.9856567,-0.01011175755,770.9856567,0.008767470717,770.9856567,0.003465841757,770.9856567,-0.006342888344,770.9856567,-0.04725680873,
769.9987793,-0.008767679334,769.9987793,0.01218262501,769.9987793,0.006560951006,769.9987793,-0.004725259263,769.9987793,-0.04448655248,
769.0115356,-0.01136202458,769.0115356,0.009844430722,769.0115356,0.003977416549,769.0115356,-0.005456509534,769.0115356,-0.04610780999,
767.9887085,-0.01082652807,767.9887085,0.01056545507,767.9887085,0.003803412663,767.9887085,-0.006238026544,767.9887085,-0.04764821008,
767.0006714,-0.01102473587,767.0006714,0.0101913698,767.0006714,0.005149907432,767.0006714,-0.005731375888,767.0006714,-0.04798192158,
766.0123901,-0.01044126507,766.0123901,0.01026446465,766.0123901,0.004914428107,766.0123901,-0.005202443805,766.0123901,-0.04776380584,
764.9883423,-0.01135531627,764.9883423,0.01173155662,764.9883423,0.006687297486,764.9883423,-0.005039329175,764.9883423,-0.04582380876,
763.9993286,-0.01061014459,763.9993286,0.01181954145,763.9993286,0.007168365177,763.9993286,-0.004744668026,763.9993286,-0.04483264685,
763.0098877,-0.01117779687,763.0098877,0.01186681259,763.0098877,0.008148533292,763.0098877,-0.003561759833,763.0098877,-0.04568565637,
761.9847412,-0.01089504734,761.9847412,0.01311194152,761.9847412,0.006270811893,761.9847412,-0.005058365874,761.9847412,-0.04716105014,
760.9946289,-0.008997001685,760.9946289,0.01385952812,760.9946289,0.009075460024,760.9946289,-0.002177083632,760.9946289,-0.04503161088,
760.0040894,-0.01071031857,760.0040894,0.01305653248,760.0040894,0.007545148022,760.0040894,-0.003589846892,760.0040894,-0.0455102548,
759.0131836,-0.01017164066,759.0131836,0.01298205927,759.0131836,0.00698129274,759.0131836,-0.004496179987,759.0131836,-0.04520655051,
757.9865723,-0.01153311692,757.9865723,0.01338938996,757.9865723,0.006302327849,757.9865723,-0.003518932732,757.9865723,-0.0458181724,
756.9949951,-0.01129579823,756.9949951,0.01402924117,756.9949951,0.005745565519,756.9949951,-0.004149565473,756.9949951,-0.04503175244,
756.0029907,-0.01019793842,756.0029907,0.01280491706,756.0029907,0.008692673407,756.0029907,-0.004561606795,756.0029907,-0.04568751901,
755.0106812,-0.009765295312,755.0106812,0.01344454847,755.0106812,0.008701995946,755.0106812,-0.003290860448,755.0106812,-0.04415051639,
753.9825439,-0.01044197287,753.9825439,0.01356781181,753.9825439,0.009215522557,753.9825439,-0.003283307422,753.9825439,-0.04516675323,
752.989502,-0.01012546476,752.989502,0.01482019201,752.989502,0.009038191289,752.989502,-0.001754470984,752.989502,-0.04286133125,
751.9961548,-0.008900742978,751.9961548,0.0153080523,751.9961548,0.008925613016,751.9961548,-0.001442091889,751.9961548,-0.04312753677,
751.0023804,-0.01031231321,751.0023804,0.01634989679,751.0023804,0.01003737561,751.0023804,-0.001734824968,751.0023804,-0.04422318935,
750.0082397,-0.01014771871,750.0082397,0.01610977203,750.0082397,0.00981506519,750.0082397,-0.001121638925,750.0082397,-0.04389747977,
749.0137329,-0.009560536593,749.0137329,0.01590417512,749.0137329,0.009844721295,749.0137329,-0.002460261574,749.0137329,-0.04307020456,
747.9834595,-0.01146918628,747.9834595,0.01646740176,747.9834595,0.009803627618,747.9834595,-0.0005183935282,747.9834595,-0.04228470102,
746.9882202,-0.01129378099,746.9882202,0.01730703935,746.9882202,0.01080356818,746.9882202,-0.0006139951292,746.9882202,-0.04276605323,
745.9926758,-0.009973498993,745.9926758,0.01786742359,745.9926758,0.01089038234,745.9926758,-0.0009631317807,745.9926758,-0.04242173582,
744.9967651,-0.009986148216,744.9967651,0.01828271151,744.9967651,0.01062824018,744.9967651,-8.080847329E-005,744.9967651,-0.04127572104,
744.0006104,-0.01033177786,744.0006104,0.01837114245,744.0006104,0.01201238204,744.0006104,0.0008532885113,744.0006104,-0.04185975716,
743.0040283,-0.009448800236,743.0040283,0.01752650924,743.0040283,0.01130776387,743.0040283,6.324402784E-005,743.0040283,-0.04204377905,
742.007019,-0.01012511086,742.007019,0.01789159141,742.007019,0.01230638381,742.007019,0.001068981248,742.007019,-0.04070009291,
741.0097656,-0.01205379516,741.0097656,0.0184112452,741.0097656,0.01158916578,741.0097656,-4.845582953E-005,741.0097656,-0.04269327968,
740.012085,-0.009805738926,740.012085,0.0194582697,740.012085,0.0123638818,740.012085,0.001125244075,740.012085,-0.0413566418,
739.0140991,-0.0112788491,739.0140991,0.01960099116,739.0140991,0.01186151803,739.0140991,0.001230574562,739.0140991,-0.04167255014,
738.015686,-0.01146721933,738.015686,0.01936065964,738.015686,0.01247525122,738.015686,0.001989095937,738.015686,-0.04118743911,
737.0170898,-0.0105500184,737.0170898,0.01911540143,737.0170898,0.01283941697,737.0170898,0.001149277319,737.0170898,-0.04113846645,
735.9823608,-0.01123344619,735.9823608,0.01963687502,735.9823608,0.01307592634,735.9823608,0.001537549309,735.9823608,-0.04077155143,
734.9829712,-0.01041922811,734.9829712,0.02027835511,734.9829712,0.01371293794,734.9829712,0.002635536017,734.9829712,-0.0402940698,
733.9832153,-0.01017942932,733.9832153,0.02080388926,733.9832153,0.01476188563,733.9832153,0.002655902412,733.9832153,-0.03972583264,
732.9830933,-0.01052525826,732.9830933,0.02042861842,732.9830933,0.01492123492,732.9830933,0.002134044887,732.9830933,-0.03953557834,
731.982666,-0.01030457765,731.982666,0.02171914652,731.982666,0.0152905155,731.982666,0.003378229216,731.982666,-0.03989971057,
731.0176392,-0.01066056266,731.0176392,0.02209657058,731.0176392,0.01508608367,731.0176392,0.002891775686,731.0176392,-0.03997800872,
730.0165405,-0.0112860119,730.0165405,0.02104219608,730.0165405,0.01590165123,730.0165405,0.002336528851,730.0165405,-0.03959527239,
729.0150146,-0.009752437472,729.0150146,0.02402257733,729.0150146,0.01677923463,729.0150146,0.00453204615,729.0150146,-0.03823472932,
728.0132446,-0.009768130258,728.0132446,0.02436520904,728.0132446,0.01721772179,728.0132446,0.005023195874,728.0132446,-0.03757752478,
727.0110474,-0.01005136035,727.0110474,0.02348567545,727.0110474,0.01650937274,727.0110474,0.00362269138,727.0110474,-0.03784955293,
726.0085449,-0.01032126229,726.0085449,0.02363456413,726.0085449,0.01675386354,726.0085449,0.004408783279,726.0085449,-0.03836807236,
725.0057983,-0.01097430848,725.0057983,0.0234663859,725.0057983,0.01751001365,725.0057983,0.005017382558,725.0057983,-0.03791574016,
724.0026245,-0.01121250913,724.0026245,0.02418259718,724.0026245,0.01729715429,724.0026245,0.004674732685,724.0026245,-0.03748098761,
722.9990845,-0.01027960144,722.9990845,0.02576140873,722.9990845,0.01832888275,722.9990845,0.004686036613,722.9990845,-0.03682868183,
721.9951782,-0.009930996224,721.9951782,0.02611003444,721.9951782,0.01808795892,721.9951782,0.005343529861,721.9951782,-0.03703876212,
720.9910278,-0.009965252131,720.9910278,0.02604021505,720.9910278,0.01922640577,720.9910278,0.006326176692,720.9910278,-0.03580926359,
719.9864502,-0.01035210025,719.9864502,0.02607905492,719.9864502,0.01940756664,719.9864502,0.005801440682,719.9864502,-0.03633793816,
719.0174561,-0.01032596361,719.0174561,0.02655414119,719.0174561,0.02035897411,719.0174561,0.007147075143,719.0174561,-0.03535459563,
718.012207,-0.009233603254,718.012207,0.02745497227,718.012207,0.0203084629,718.012207,0.008401317522,718.012207,-0.03498930112,
717.0067139,-0.0106874872,717.0067139,0.02696030587,717.0067139,0.01937078312,717.0067139,0.006947439164,717.0067139,-0.03539272398,
716.0007935,-0.01068526413,716.0007935,0.02805042639,716.0007935,0.02136472799,716.0007935,0.007593062241,716.0007935,-0.03449834138,
714.9945679,-0.009581654333,714.9945679,0.02732563578,714.9945679,0.02176388726,714.9945679,0.007671991829,714.9945679,-0.03404990584,
713.9880371,-0.01069945842,713.9880371,0.02780722454,713.9880371,0.02128438465,713.9880371,0.007193919271,713.9880371,-0.03490646929,
713.0170898,-0.01076410897,713.0170898,0.02797485702,713.0170898,0.02270675637,713.0170898,0.007540117018,713.0170898,-0.03392887861,
712.0098877,-0.01023353823,712.0098877,0.02913257666,712.0098877,0.02264138125,712.0098877,0.008500535041,712.0098877,-0.03300033137,
711.0023193,-0.01082067098,711.0023193,0.03016487323,711.0023193,0.02300929092,711.0023193,0.009786894545,711.0023193,-0.03253497556,
709.9944458,-0.009865006432,709.9944458,0.03059873357,709.9944458,0.02341043204,709.9944458,0.009646673687,709.9944458,-0.03206310794,
708.9862061,-0.01073521934,708.9862061,0.02961855754,708.9862061,0.02428381704,708.9862061,0.01051185373,708.9862061,-0.03151379526,
708.0136108,-0.0109534096,708.0136108,0.03151604533,708.0136108,0.02506337874,708.0136108,0.01166991517,708.0136108,-0.030775683,
707.0047607,-0.01026792172,707.0047607,0.03236041218,707.0047607,0.02558861487,707.0047607,0.01269823406,707.0047607,-0.03049552068,
705.9954834,-0.0109784985,705.9954834,0.03125364706,705.9954834,0.025283264,705.9954834,0.01102500409,705.9954834,-0.03033608384,
704.9860229,-0.009399000555,704.9860229,0.03298673779,704.9860229,0.02629458532,704.9860229,0.01306141354,704.9860229,-0.02945772558,
704.012146,-0.01092725899,704.012146,0.03158945218,704.012146,0.02603216283,704.012146,0.0128262192,704.012146,-0.02989666723,
703.0019531,-0.01003016345,703.0019531,0.03217864782,703.0019531,0.02707939409,703.0019531,0.01276239567,703.0019531,-0.02939071879,
701.991394,-0.01084460597,701.991394,0.03413993493,701.991394,0.0264593251,701.991394,0.0142618781,701.991394,-0.02862082422,
701.0166626,-0.0109604774,701.0166626,0.03402771428,701.0166626,0.0271891728,701.0166626,0.01377583295,701.0166626,-0.02809819579,
700.0054932,-0.01186754368,700.0054932,0.03323763981,700.0054932,0.02756981179,700.0054932,0.01441967953,700.0054932,-0.02852314524,
698.9939575,-0.009443531744,698.9939575,0.03471939638,698.9939575,0.02932099439,698.9939575,0.01401491091,698.9939575,-0.02655925602,
697.9820557,-0.009918446653,697.9820557,0.03504481539,697.9820557,0.02971406654,697.9820557,0.01365616918,697.9820557,-0.02780552022,
697.0060425,-0.01112244278,697.0060425,0.03633167967,697.0060425,0.02948447503,697.0060425,0.01575262472,697.0060425,-0.02610337362,
695.9935913,-0.01063328329,695.9935913,0.03515710309,695.9935913,0.03012724966,695.9935913,0.01857512817,695.9935913,-0.02617244981,
695.0168457,-0.01053309068,695.0168457,0.03711847216,695.0168457,0.03171914443,695.0168457,0.01735849492,695.0168457,-0.02575207129,
694.0037842,-0.01077885646,694.0037842,0.03588918969,694.0037842,0.0305330772,694.0037842,0.01615866832,694.0037842,-0.02456291392,
692.9902344,-0.009474330582,692.9902344,0.03711190075,692.9902344,0.03205622733,692.9902344,0.01907417923,692.9902344,-0.02434886247,
692.0126343,-0.01123168133,692.0126343,0.03708336875,692.0126343,0.03265074641,692.0126343,0.01892403327,692.0126343,-0.02345957421,
690.9985352,-0.01027747802,690.9985352,0.03682046011,690.9985352,0.03168728948,690.9985352,0.01870258711,690.9985352,-0.02385164611,
689.9841309,-0.009086699225,689.9841309,0.03790513799,689.9841309,0.03277637437,689.9841309,0.02105629817,689.9841309,-0.02307839133,
689.0056152,-0.009553041309,689.0056152,0.03899638355,689.0056152,0.03451107815,689.0056152,0.01994386502,689.0056152,-0.02180276252,
687.9904785,-0.01066419948,687.9904785,0.03899921477,687.9904785,0.03372624889,687.9904785,0.02198477648,687.9904785,-0.02180753835,
687.0113525,-0.01167027466,687.0113525,0.03997090459,687.0113525,0.03458818793,687.0113525,0.02147391438,687.0113525,-0.02132435888,
685.9956665,-0.01025907323,685.9956665,0.04162542894,685.9956665,0.03656314686,685.9956665,0.02297307365,685.9956665,-0.01945723966,
685.0158691,-0.009598112665,685.0158691,0.04202401266,685.0158691,0.03665560484,685.0158691,0.02369609661,685.0158691,-0.01929325238,
683.9995117,-0.01030624658,683.9995117,0.04087602347,683.9995117,0.03741564229,683.9995117,0.02214982174,683.9995117,-0.01917462982,
682.9828491,-0.01141971815,682.9828491,0.04148579389,682.9828491,0.03679927438,682.9828491,0.02238221839,682.9828491,-0.02014469542,
682.0021973,-0.01039643213,682.0021973,0.04092278332,682.0021973,0.03789420798,682.0021973,0.02321137115,682.0021973,-0.01793481223,
680.9848633,-0.009982150979,680.9848633,0.0431256406,680.9848633,0.03900434077,680.9848633,0.0251981318,680.9848633,-0.01706926338,
680.0036011,-0.01007538848,680.0036011,0.04109760374,680.0036011,0.03972966969,680.0036011,0.02477289364,680.0036011,-0.01594669558,
678.9857178,-0.01199255977,678.9857178,0.04356598482,678.9857178,0.0391157046,678.9857178,0.02436312847,678.9857178,-0.0174425263,
678.0037842,-0.01170172263,678.0037842,0.0434232913,678.0037842,0.03862755746,678.0037842,0.02684953995,678.0037842,-0.0167515222,
676.9851685,-0.01019389275,676.9851685,0.04479276761,676.9851685,0.04225337133,676.9851685,0.02740128711,676.9851685,-0.01385261398,
676.0027466,-0.01179247629,676.0027466,0.04410154372,676.0027466,0.04237210378,676.0027466,0.02803626098,676.0027466,-0.01440017112,
674.9835205,-0.01073158346,674.9835205,0.04671028629,674.9835205,0.04361661151,674.9835205,0.02982595563,674.9835205,-0.01300913189,
674.0003662,-0.01013209019,674.0003662,0.04617005959,674.0003662,0.0445366241,674.0003662,0.03015602194,674.0003662,-0.01287606545,
673.0170288,-0.01004569419,673.0170288,0.04682992771,673.0170288,0.04527904838,673.0170288,0.03153633699,673.0170288,-0.01164971199,
671.9968262,-0.01131365448,671.9968262,0.04549923539,671.9968262,0.04513903707,671.9968262,0.03002923541,671.9968262,-0.01148486696,
671.0128174,-0.01038248092,671.0128174,0.04573040828,671.0128174,0.04579642043,671.0128174,0.03191941231,671.0128174,-0.01001149602,
669.9920654,-0.01117254887,669.9920654,0.04674908891,669.9920654,0.0448691994,669.9920654,0.03155237064,669.9920654,-0.01092867274,
669.0075073,-0.01063399017,669.0075073,0.04819207266,669.0075073,0.04706186801,669.0075073,0.03345113248,669.0075073,-0.008543008007,
667.986145,-0.009385979734,667.986145,0.04837759957,667.986145,0.04855107889,667.986145,0.03324585408,667.986145,-0.007404872682,
667.0009155,-0.009960951284,667.0009155,0.04918245599,667.0009155,0.04788503796,667.0009155,0.03657235578,667.0009155,-0.006974939257,
666.0154419,-0.01040497422,666.0154419,0.04872155562,666.0154419,0.04890725389,666.0154419,0.03559853882,666.0154419,-0.007339720149,
664.9931641,-0.01126936544,664.9931641,0.05056826398,664.9931641,0.04974739999,664.9931641,0.03607999906,664.9931641,-0.006046046969,
664.0070801,-0.01011135336,664.0070801,0.05049111694,664.0070801,0.05097706616,664.0070801,0.03795553371,664.0070801,-0.004606841598,
662.9841309,-0.009443125688,662.9841309,0.05200986192,662.9841309,0.05254878849,662.9841309,0.03907661512,662.9841309,-0.00277551054,
661.9974365,-0.01099904347,661.9974365,0.05232844129,661.9974365,0.05162247643,661.9974365,0.03996866196,661.9974365,-0.003567819018,
661.010498,-0.01021477766,661.010498,0.05272993445,661.010498,0.05347948149,661.010498,0.03939210996,661.010498,-0.002056165598,
659.9866943,-0.009942178614,659.9866943,0.05238275975,659.9866943,0.05500978976,659.9866943,0.04165671021,659.9866943,-0.0003251613234,
658.9990845,-0.01073875558,658.9990845,0.05357851088,658.9990845,0.05473994836,658.9990845,0.04153603688,658.9990845,-0.001057189424,
658.0112915,-0.01088792831,658.0112915,0.05270094052,658.0112915,0.05563121289,658.0112915,0.04161705449,658.0112915,0.0002508556936,
656.9865723,-0.01092236117,656.9865723,0.05368635058,656.9865723,0.05614177883,656.9865723,0.04350265861,656.9865723,0.0005346671678,
655.9980469,-0.01224897709,655.9980469,0.05464954674,655.9980469,0.05632047728,655.9980469,0.04466160759,655.9980469,0.00196566619,
655.0093384,-0.01045597252,655.0093384,0.05433392525,655.0093384,0.05806029215,655.0093384,0.04500314966,655.0093384,0.002689892193,
653.9837036,-0.009545494802,653.9837036,0.05532799289,653.9837036,0.06004765257,653.9837036,0.04722922295,653.9837036,0.004605738446,
652.9943848,-0.01177690644,652.9943848,0.05591153353,652.9943848,0.05980407074,652.9943848,0.04596288502,652.9943848,0.004704877269,
652.0048218,-0.01088540442,652.0048218,0.0564671196,652.0048218,0.06077811867,652.0048218,0.04770928249,652.0048218,0.007129970472,
651.0149536,-0.01065520756,651.0149536,0.0568208769,651.0149536,0.06181505695,651.0149536,0.04779148847,651.0149536,0.006806396879,
649.9880371,-0.009798905812,649.9880371,0.05706305802,649.9880371,0.0631942898,649.9880371,0.05032348633,649.9880371,0.008795179427,
648.9976196,-0.009957156144,648.9976196,0.05891292542,648.9976196,0.06421373039,648.9976196,0.05296761915,648.9976196,0.01143650897,
648.0067749,-0.01094861329,648.0067749,0.05843181536,648.0067749,0.06454556435,648.0067749,0.05165081471,648.0067749,0.009178162552,
647.0158081,-0.01038647443,647.0158081,0.05945850164,647.0158081,0.0650106743,647.0158081,0.05453550816,647.0158081,0.01147571113,
645.987793,-0.01048806496,645.987793,0.05916535109,645.987793,0.06722123921,645.987793,0.05479156971,645.987793,0.0130907055,
644.9961548,-0.01002889872,644.9961548,0.0592850633,644.9961548,0.06715672463,644.9961548,0.05339774489,644.9961548,0.01312138606,
644.0042725,-0.01174606849,644.0042725,0.06015494093,644.0042725,0.06788951159,644.0042725,0.05631390586,644.0042725,0.0143386852,
643.012085,-0.009963076562,643.012085,0.06235604733,643.012085,0.0698485598,643.012085,0.05736182258,643.012085,0.01588076167,
641.9828491,-0.01171442214,641.9828491,0.06139897183,641.9828491,0.07010410726,641.9828491,0.0582213439,641.9828491,0.01625223085,
640.9901123,-0.01127047557,640.9901123,0.06115394458,640.9901123,0.07141621411,640.9901123,0.05937477201,640.9901123,0.01677893847,
639.9970703,-0.01046557538,639.9970703,0.06133591384,639.9970703,0.07180459797,639.9970703,0.06006123871,639.9970703,0.01832253672,
639.0037231,-0.01031433605,639.0037231,0.06328576803,639.0037231,0.07305386662,639.0037231,0.06285977364,639.0037231,0.02073518932,
638.0101929,-0.01013370883,638.0101929,0.06399971247,638.0101929,0.07526774704,638.0101929,0.06270758063,638.0101929,0.02200830355,
637.0162964,-0.009254737757,637.0162964,0.06449288875,637.0162964,0.07468252629,637.0162964,0.06396567076,637.0162964,0.02255175076,
635.9852905,-0.009839094244,635.9852905,0.06396149844,635.9852905,0.07652671635,635.9852905,0.06623174995,635.9852905,0.02377251349,
634.9908447,-0.01049695909,634.9908447,0.06501362473,634.9908447,0.07667178661,634.9908447,0.06475176662,634.9908447,0.02502155863,
633.9961548,-0.01123844087,633.9961548,0.06445872039,633.9961548,0.0784714818,633.9961548,0.06733231246,633.9961548,0.02465095557,
633.0010986,-0.01008419041,633.0010986,0.06604331732,633.0010986,0.07960000634,633.0010986,0.06853789836,633.0010986,0.02748505771,
632.0057983,-0.01087177172,632.0057983,0.06613404304,632.0057983,0.07961076498,632.0057983,0.07039508969,632.0057983,0.02895326354,
631.0103149,-0.0108290026,631.0103149,0.06616409868,631.0103149,0.08125273138,631.0103149,0.07082028687,631.0103149,0.02959311754,
630.0144043,-0.01053258497,630.0144043,0.06651881337,630.0144043,0.0818779096,630.0144043,0.07236947119,630.0144043,0.03049705923,
629.0183105,-0.01099884138,629.0183105,0.06686265767,629.0183105,0.08247031271,629.0183105,0.07323619723,629.0183105,0.0316189602,
627.9850464,-0.01159083843,627.9850464,0.06798162311,627.9850464,0.08371270448,627.9850464,0.07370574772,627.9850464,0.03279873356,
626.9883423,-0.01132389437,626.9883423,0.06798743457,626.9883423,0.08495008945,626.9883423,0.07462184131,626.9883423,0.03416875377,
625.991394,-0.01155202184,625.991394,0.06781318784,625.991394,0.0860556066,625.991394,0.07659436017,625.991394,0.03525872156,
624.9942017,-0.01010680106,624.9942017,0.06883320212,624.9942017,0.08790554106,624.9942017,0.07865183055,624.9942017,0.03754356131,
623.9967041,-0.0100275334,623.9967041,0.06987215579,623.9967041,0.08886633813,623.9967041,0.07924661785,623.9967041,0.03958712891,
622.9988403,-0.01127521694,622.9988403,0.06973392516,622.9988403,0.08914582431,622.9988403,0.07866089046,622.9988403,0.03903642669,
622.0008545,-0.009340631776,622.0008545,0.07094687968,622.0008545,0.09141211957,622.0008545,0.08161602914,622.0008545,0.04266601056,
621.0025024,-0.009709760547,621.0025024,0.07089798898,621.0025024,0.09255040437,621.0025024,0.08492071927,621.0025024,0.04324730113,
620.0039063,-0.01174848806,620.0039063,0.07122204453,620.0039063,0.09322223812,620.0039063,0.08257452399,620.0039063,0.04346526042,
619.0050659,-0.01050716732,619.0050659,0.07212603092,619.0050659,0.09449771047,619.0050659,0.08604557067,619.0050659,0.04611139372,
618.0059204,-0.0106783947,618.0059204,0.07109101117,618.0059204,0.09584568441,618.0059204,0.08664274216,618.0059204,0.04690268263,
617.0065308,-0.01083385013,617.0065308,0.07292533666,617.0065308,0.09694304317,617.0065308,0.08876801282,617.0065308,0.04814215377,
616.0067749,-0.01146066468,616.0067749,0.07356000692,616.0067749,0.09779193252,616.0067749,0.08962351829,616.0067749,0.04919790849,
615.006897,-0.01115408167,615.006897,0.07370740175,615.006897,0.1001787633,615.006897,0.09186902642,615.006897,0.05175240338,
614.0066528,-0.01098329388,614.0066528,0.07394283265,614.0066528,0.09915477037,614.0066528,0.09260381013,614.0066528,0.05234251916,
613.0062256,-0.01099520735,613.0062256,0.07451853901,613.0062256,0.1015413776,613.0062256,0.09442267567,613.0062256,0.05447866395,
612.0054321,-0.01035604347,612.0054321,0.07483451068,612.0054321,0.1032200307,612.0054321,0.09567883611,612.0054321,0.05536130816,
611.0043945,-0.01045804471,611.0043945,0.07452625781,611.0043945,0.1044508666,611.0043945,0.09616483748,611.0043945,0.05762602761,
610.0031128,-0.01116099488,610.0031128,0.07614185661,610.0031128,0.1056764871,610.0031128,0.09860537946,610.0031128,0.05820707604,
609.0014648,-0.01107137091,609.0014648,0.07573219389,609.0014648,0.1060775369,609.0014648,0.09849257767,609.0014648,0.05933170766,
607.9996948,-0.01121730264,607.9996948,0.0755885765,607.9996948,0.1071739867,607.9996948,0.1002807245,607.9996948,0.06066903844,
606.9976196,-0.01057826355,606.9976196,0.07686899602,606.9976196,0.1084336787,606.9976196,0.1015961915,606.9976196,0.06351018697,
605.9953003,-0.01025361288,605.9953003,0.07667888701,605.9953003,0.1097138897,605.9953003,0.1032453105,605.9953003,0.06427703053,
604.9926147,-0.01074168459,604.9926147,0.07706428319,604.9926147,0.1107859612,604.9926147,0.1039826423,604.9926147,0.06526074558,
603.9896851,-0.01068112254,603.9896851,0.07834878564,603.9896851,0.1128374413,603.9896851,0.1073840931,603.9896851,0.06759630889,
602.9865723,-0.01082370058,602.9865723,0.07821406424,602.9865723,0.1137644574,602.9865723,0.1079393327,602.9865723,0.06827269495,
601.9830933,-0.01090994198,601.9830933,0.07790937275,601.9830933,0.1143554747,601.9830933,0.1078631654,601.9830933,0.07036690414,
601.0166016,-0.01011630986,601.0166016,0.07943610847,601.0166016,0.1164678186,601.0166016,0.1113460436,601.0166016,0.07219049335,
600.0126953,-0.01087990031,600.0126953,0.07936064899,600.0126953,0.1162555739,600.0126953,0.1125029176,600.0126953,0.07352349162,
599.0084839,-0.01178582478,599.0084839,0.07858453691,599.0084839,0.1164048985,599.0084839,0.1121563837,599.0084839,0.0745042488,
598.0039673,-0.009918548167,598.0039673,0.0803309679,598.0039673,0.1197035536,598.0039673,0.1155297533,598.0039673,0.07726188749,
596.9992065,-0.01115150843,596.9992065,0.07964962721,596.9992065,0.1201478466,596.9992065,0.1149709374,596.9992065,0.07750150561,
595.9942627,-0.01053521316,595.9942627,0.08035398275,595.9942627,0.1218356267,595.9942627,0.118512027,595.9942627,0.07994446158,
594.9890137,-0.01116523333,594.9890137,0.08111111075,594.9890137,0.1234172732,594.9890137,0.1188580915,594.9890137,0.08071544021,
593.9834595,-0.0103085218,593.9834595,0.08169972152,593.9834595,0.1252402216,593.9834595,0.1207577065,593.9834595,0.0831560269,
593.0149536,-0.01095482334,593.0149536,0.08145561814,593.0149536,0.1250288337,593.0149536,0.1222494543,593.0149536,0.08407960832,
592.0089111,-0.01051747613,592.0089111,0.08138402551,592.0089111,0.1265983582,592.0089111,0.1236985698,592.0089111,0.08576700091,
591.0026245,-0.01082799304,591.0026245,0.08275272697,591.0026245,0.1285997629,591.0026245,0.1253189147,591.0026245,0.08720716089,
589.9960938,-0.009937523864,589.9960938,0.08197684586,589.9960938,0.1296542585,589.9960938,0.1271563619,589.9960938,0.08853904158,
588.9892578,-0.009624344297,588.9892578,0.08299975097,588.9892578,0.1310441941,588.9892578,0.1282299906,588.9892578,0.09116818011,
587.9821777,-0.01150332019,587.9821777,0.08320894837,587.9821777,0.1316538751,587.9821777,0.1304201782,587.9821777,0.09252362698,
587.012207,-0.01118435618,587.012207,0.08373884857,587.012207,0.1331884116,587.012207,0.1318826228,587.012207,0.09316063672,
586.0046387,-0.01035053283,586.0046387,0.08378088474,586.0046387,0.1343399733,586.0046387,0.1320979744,586.0046387,0.09555801749,
584.9968262,-0.01023288071,584.9968262,0.08433748037,584.9968262,0.1368149072,584.9968262,0.1350627989,584.9968262,0.09866116196,
583.9887085,-0.01038015541,583.9887085,0.08364958316,583.9887085,0.13731049,583.9887085,0.1358862668,583.9887085,0.09864728898,
583.0177002,-0.01095482334,583.0177002,0.08509192616,583.0177002,0.1380822808,583.0177002,0.1366569549,583.0177002,0.09978019446,
582.0090942,-0.0105653787,582.0090942,0.08501663804,582.0090942,0.1395454258,582.0090942,0.1384373903,582.0090942,0.1017924547,
581.0003052,-0.01084945351,581.0003052,0.08560306579,581.0003052,0.1413204521,581.0003052,0.1402556896,581.0003052,0.1038059965,
579.9911499,-0.01107122004,579.9911499,0.08499076217,579.9911499,0.1406534463,579.9911499,0.1418253481,579.9911499,0.1047550589,
578.9818115,-0.01050206367,578.9818115,0.08527018875,578.9818115,0.1439630687,578.9818115,0.1440359503,578.9818115,0.107101433,
578.0095825,-0.01065960247,578.0095825,0.08542472869,578.0095825,0.1427376419,578.0095825,0.1442035884,578.0095825,0.1080272943,
576.9997559,-0.01111497357,576.9997559,0.08497753739,576.9997559,0.14498806,576.9997559,0.1449601501,576.9997559,0.1095217764,
575.989624,-0.01090893243,575.989624,0.08590941876,575.989624,0.1465298235,575.989624,0.1465130299,575.989624,0.1115704551,
575.0166626,-0.01072739065,575.0166626,0.0862076804,575.0166626,0.1473904848,575.0166626,0.1489776969,575.0166626,0.1120695919,
574.0061035,-0.01113667246,574.0061035,0.08653297275,574.0061035,0.1486785263,574.0061035,0.1491943598,574.0061035,0.1143510267,
572.9952393,-0.01055173669,572.9952393,0.08662122488,572.9952393,0.149834618,572.9952393,0.1521182209,572.9952393,0.1157888845,
571.9841309,-0.01117709,571.9841309,0.08673348278,571.9841309,0.1515184939,571.9841309,0.1530423462,571.9841309,0.1170076206,
571.0102539,-0.01096996758,571.0102539,0.08608009666,571.0102539,0.1516765952,571.0102539,0.1536958069,571.0102539,0.1176975965,
569.9985962,-0.01149273291,569.9985962,0.08733160049,569.9985962,0.153052628,569.9985962,0.1552316546,569.9985962,0.1201294139,
568.9868164,-0.01141296141,568.9868164,0.08720131218,568.9868164,0.154449746,568.9868164,0.1574169248,568.9868164,0.1214687675,
568.012146,-0.01110876724,568.012146,0.08691785485,568.012146,0.1553493291,568.012146,0.1578026116,568.012146,0.1231129616,
566.9998169,-0.01084697898,566.9998169,0.08775074035,566.9998169,0.1571866274,566.9998169,0.1611416042,566.9998169,0.1247691959,
565.9871826,-0.01106960513,565.9871826,0.08721301705,565.9871826,0.157487154,565.9871826,0.1606421918,565.9871826,0.1259518117,
565.0118408,-0.01122537442,565.0118408,0.08793459833,565.0118408,0.1585419476,565.0118408,0.1621216685,565.0118408,0.1281776875,
563.9988403,-0.0107486546,563.9988403,0.08834572881,563.9988403,0.1601396501,563.9988403,0.1644424349,563.9988403,0.1290146559,
562.9855347,-0.01130543277,562.9855347,0.08779551089,562.9855347,0.1614473164,562.9855347,0.1653915197,562.9855347,0.1298010498,
562.0095215,-0.01160742249,562.0095215,0.08824317157,562.0095215,0.162851721,562.0095215,0.167556107,562.0095215,0.1318628043,
560.9956665,-0.0112787988,560.9956665,0.0886098966,560.9956665,0.1635427773,560.9956665,0.1685682386,560.9956665,0.1339913309,
559.9816284,-0.01068475936,559.9816284,0.08875235915,559.9816284,0.1651807427,559.9816284,0.1701552123,559.9816284,0.1353269517,
559.0048218,-0.01071249042,559.0048218,0.08862065524,559.0048218,0.1659532487,559.0048218,0.1708811074,559.0048218,0.1361419708,
557.9903564,-0.0106378803,557.9903564,0.0893638581,557.9903564,0.1664195806,557.9903564,0.1720289886,557.9903564,0.1379058659,
557.0131836,-0.0107600186,557.0131836,0.08898760378,557.0131836,0.1680464596,557.0131836,0.1746384799,557.0131836,0.1395944357,
555.9981689,-0.01103846449,555.9981689,0.08828605711,555.9981689,0.1688873172,555.9981689,0.1744935811,555.9981689,0.1401062012,
554.9828491,-0.01060595084,554.9828491,0.08888657391,554.9828491,0.169139713,554.9828491,0.1745077074,554.9828491,0.1415894479,
554.0049438,-0.01132313721,554.0049438,0.08880761266,554.0049438,0.1707435399,554.0049438,0.1763050109,554.0049438,0.1424833089,
552.9892578,-0.01056841109,552.9892578,0.08981663734,552.9892578,0.171810627,552.9892578,0.178404063,552.9892578,0.1450260133,
552.0108643,-0.01149132103,552.0108643,0.08925628662,552.0108643,0.1723464727,552.0108643,0.1787997633,552.0108643,0.1456608176,
550.9946899,-0.01082289219,550.9946899,0.08897419274,550.9946899,0.1738170981,550.9946899,0.1801213771,550.9946899,0.1465178132,
550.0159302,-0.01069592312,550.0159302,0.08981880546,550.0159302,0.1745738983,550.0159302,0.1821501255,550.0159302,0.1486671865,
548.9992065,-0.01055042259,548.9992065,0.08919318765,548.9992065,0.1751832515,548.9992065,0.1825492233,548.9992065,0.1492162198,
547.9822388,-0.01050534844,547.9822388,0.0895069465,547.9822388,0.1764462441,547.9822388,0.1843025535,547.9822388,0.1510374993,
547.0027466,-0.01124989334,547.0027466,0.08939085156,547.0027466,0.1766089946,547.0027466,0.1851492673,547.0027466,0.1514540315,
545.9853516,-0.01123899594,545.9853516,0.08949578553,545.9853516,0.1772656292,545.9853516,0.1862437129,545.9853516,0.1532576233,
545.0053711,-0.0111075053,545.0053711,0.08932674676,545.0053711,0.1784739494,545.0053711,0.1876563281,545.0053711,0.1542031318,
543.9875488,-0.01118480973,543.9875488,0.08893006295,543.9875488,0.1793827116,543.9875488,0.1878219694,543.9875488,0.1552103013,
543.0070801,-0.01101302542,543.0070801,0.08931335807,543.0070801,0.1803909391,543.0070801,0.1890115738,543.0070801,0.1565954685,
541.9887695,-0.01093826443,541.9887695,0.0890006572,541.9887695,0.1807497889,541.9887695,0.1897050738,541.9887695,0.1574614793,
541.0079346,-0.01088282932,541.0079346,0.0893079564,541.0079346,0.1813481003,541.0079346,0.1892912388,541.0079346,0.1575349569,
539.9890747,-0.01105370652,539.9890747,0.08896142244,539.9890747,0.182312116,539.9890747,0.1928475648,539.9890747,0.1589176357,
539.0078125,-0.01109670568,539.0078125,0.08907362074,539.0078125,0.1830425262,539.0078125,0.1927512437,539.0078125,0.1600244641,
537.9885254,-0.01117592957,537.9885254,0.08871971071,537.9885254,0.1840419769,537.9885254,0.1940676421,537.9885254,0.161924392,
537.0068359,-0.01121457759,537.0068359,0.08827946335,537.0068359,0.1836110204,537.0068359,0.1935324669,537.0068359,0.1620573401,
535.9870605,-0.01086980198,535.9870605,0.08952189982,535.9870605,0.185019508,535.9870605,0.1951614171,535.9870605,0.1631587446,
535.0048218,-0.01139097381,535.0048218,0.08876540512,535.0048218,0.1851041466,535.0048218,0.1954130828,535.0048218,0.1643960178,
533.9846191,-0.0111638708,533.9846191,0.08909156919,533.9846191,0.1863523126,533.9846191,0.1972289681,533.9846191,0.1657182127,
533.0020142,-0.01095810439,533.0020142,0.08921989053,533.0020142,0.1865611374,533.0020142,0.1981133074,533.0020142,0.1654964685,
531.9813843,-0.01090034936,531.9813843,0.08880475909,531.9813843,0.1875019521,531.9813843,0.1994809061,531.9813843,0.1667400897,
530.998291,-0.01162597165,530.998291,0.08882158995,530.998291,0.1878141463,530.998291,0.1989820749,530.998291,0.1676096022,
530.0150146,-0.01109418273,530.0150146,0.08841153234,530.0150146,0.1882488579,530.0150146,0.1998320222,530.0150146,0.1686273664,
528.9937134,-0.01106168143,528.9937134,0.08814482391,528.9937134,0.1880605817,528.9937134,0.2008757591,528.9937134,0.1689431667,
528.0099487,-0.01136822812,528.0099487,0.08782415837,528.0099487,0.1890035421,528.0099487,0.2012717426,528.0099487,0.1690012962,
526.9880981,-0.01121725235,526.9880981,0.08813045919,526.9880981,0.1896509081,526.9880981,0.2020673007,526.9880981,0.1703888029,
526.0039063,-0.01127819344,526.0039063,0.08738876879,526.0039063,0.1893742681,526.0039063,0.202490285,526.0039063,0.1701921374,
524.9816895,-0.01089681499,524.9816895,0.08770360053,524.9816895,0.1904412955,524.9816895,0.2038484067,524.9816895,0.1713737696,
523.9970703,-0.01080451068,523.9970703,0.08748874813,523.9970703,0.1911857277,523.9970703,0.2037627399,523.9970703,0.1721177101,
523.0122681,-0.01070365123,523.0122681,0.08706438541,523.0122681,0.1911327541,523.0122681,0.2044296414,523.0122681,0.1722418815,
521.9893188,-0.01091514248,521.9893188,0.08727864921,521.9893188,0.1919163316,521.9893188,0.20459041,521.9893188,0.173917383,
521.0040894,-0.0110005578,521.0040894,0.08702114224,521.0040894,0.1914789081,521.0040894,0.2052457631,521.0040894,0.1736175567,
520.0186157,-0.01136318501,520.0186157,0.08706194907,520.0186157,0.1923844814,520.0186157,0.2058611065,520.0186157,0.1750614047,
518.9950562,-0.01101388317,518.9950562,0.0872560516,518.9950562,0.1923792809,518.9950562,0.2054391056,518.9950562,0.1746793538,
518.0090332,-0.01098516211,518.0090332,0.08683441579,518.0090332,0.1930582076,518.0090332,0.2050362378,518.0090332,0.1755738854,
516.9850464,-0.01112950686,516.9850464,0.0869827792,516.9850464,0.1926342547,516.9850464,0.2063596398,516.9850464,0.1758316755,
515.9987793,-0.01144044381,515.9987793,0.08632090688,515.9987793,0.1923628449,515.9987793,0.2077385932,515.9987793,0.1758960187,
515.012207,-0.01097178459,515.012207,0.08644092083,515.012207,0.1932350844,515.012207,0.2074950933,515.012207,0.1769463569,
513.9875488,-0.01153619215,513.9875488,0.08570383489,513.9875488,0.1928029805,513.9875488,0.2079904675,513.9875488,0.1762659401,
513.0004883,-0.01038354263,513.0004883,0.08577589691,513.0004883,0.1936265826,513.0004883,0.2087841183,513.0004883,0.177676186,
512.0133057,-0.01068829559,512.0133057,0.08584544063,512.0133057,0.1935379654,512.0133057,0.2085896134,512.0133057,0.1772478223,
510.9880371,-0.01092594583,510.9880371,0.08571307361,510.9880371,0.1941092461,510.9880371,0.2084246427,510.9880371,0.1781956553,
510.0003967,-0.01053935662,510.0003967,0.08540903777,510.0003967,0.1935935915,510.0003967,0.2088124156,510.0003967,0.1785145551,
509.0126038,-0.01129832026,509.0126038,0.08452291787,509.0126038,0.1925082207,509.0126038,0.208037436,509.0126038,0.1773755848,
507.9865417,-0.01093245856,507.9865417,0.08433558792,507.9865417,0.1936692744,507.9865417,0.2088359147,507.9865417,0.1781137288,
506.9983521,-0.01077087689,506.9983521,0.08491650224,506.9983521,0.1943381429,506.9983521,0.2089360654,506.9983521,0.1792474836,
506.0099182,-0.01097405609,506.0099182,0.08442622423,506.0099182,0.1930738688,506.0099182,0.2097505033,506.0099182,0.1787662357,
504.9832153,-0.01084814034,504.9832153,0.08430657536,504.9832153,0.1931622624,504.9832153,0.2095311731,504.9832153,0.1795129776,
503.9943848,-0.01081193425,503.9943848,0.08407561481,503.9943848,0.1932158917,503.9943848,0.2089508176,503.9943848,0.1795682013,
503.0053406,-0.01049564499,503.0053406,0.08407146484,503.0053406,0.1941952556,503.0053406,0.2099833488,503.0053406,0.1793016195,
502.0160828,-0.01087323576,502.0160828,0.0841986835,502.0160828,0.1935053915,502.0160828,0.2086890489,502.0160828,0.1791711748,
500.9885559,-0.01066020876,500.9885559,0.08269892633,500.9885559,0.1921050847,500.9885559,0.2096199542,500.9885559,0.1785956621,
499.9989014,-0.01079228986,499.9989014,0.08280684799,499.9989014,0.192540884,499.9989014,0.2086550295,499.9989014,0.1790739447,
499.0089722,-0.01136242785,499.0089722,0.08293009549,499.0089722,0.1927482188,499.0089722,0.2085548788,499.0089722,0.1797240973,
498.0188904,-0.01111250091,498.0188904,0.08266103268,498.0188904,0.1926898509,498.0188904,0.2081406265,498.0188904,0.1797071695,
496.9905396,-0.01093563903,496.9905396,0.08214811236,496.9905396,0.1922914088,496.9905396,0.2094280124,496.9905396,0.179340899,
495.9999695,-0.009959585033,495.9999695,0.08273346722,495.9999695,0.1928007603,495.9999695,0.2087831497,495.9999695,0.1797791868,
495.0093079,-0.01050645951,495.0093079,0.08215465397,495.0093079,0.192117244,495.0093079,0.2090636492,495.0093079,0.1805130839,
494.0184021,-0.01079476438,494.0184021,0.08128465712,494.0184021,0.1906824112,494.0184021,0.2084872723,494.0184021,0.1790335178,
492.9891663,-0.010608932,492.9891663,0.08093127608,492.9891663,0.1908177882,492.9891663,0.2082937807,492.9891663,0.1792488545,
491.9978638,-0.0105596697,491.9978638,0.08093520254,491.9978638,0.190567255,491.9978638,0.2089250088,491.9978638,0.1790030599,
491.0063782,-0.01035098825,491.0063782,0.08064789325,491.0063782,0.1903414279,491.0063782,0.2077357471,491.0063782,0.1789229661,
490.0145874,-0.01039693784,490.0145874,0.08055579662,490.0145874,0.190053463,490.0145874,0.2069149911,490.0145874,0.1794548631,
488.9845886,-0.00988008827,488.9845886,0.08047086,488.9845886,0.1899050921,488.9845886,0.2077113986,488.9845886,0.1796652526,
487.9924316,-0.01084576733,487.9924316,0.07949656993,487.9924316,0.1894332767,487.9924316,0.2062837183,487.9924316,0.177955851,
487.0001526,-0.01015884522,487.0001526,0.07973434776,487.0001526,0.1888239682,487.0001526,0.2070370167,487.0001526,0.1778060496,
486.0076294,-0.01048836764,486.0076294,0.07942936569,486.0076294,0.1881471276,486.0076294,0.2061450481,486.0076294,0.1781995595,
485.0149536,-0.01106304396,485.0149536,0.07864174247,485.0149536,0.1877302676,485.0149536,0.2064153999,485.0149536,0.1786027253,
483.9837646,-0.01099248137,483.9837646,0.07879956812,483.9837646,0.1871616095,483.9837646,0.2060084194,483.9837646,0.177581057,
482.9906921,-0.01060312148,482.9906921,0.07869079709,482.9906921,0.1870378405,482.9906921,0.2059871107,482.9906921,0.1769736409,
481.997345,-0.01060630474,481.997345,0.07838149369,481.997345,0.1864640117,481.997345,0.2056321651,481.997345,0.1769398302,
481.0038147,-0.01059316844,481.0038147,0.07791361958,481.0038147,0.1859538108,481.0038147,0.2052110881,481.0038147,0.1768683642,
480.0101318,-0.01051894203,480.0101318,0.07797222584,480.0101318,0.1854856461,480.0101318,0.2061100155,480.0101318,0.1767273396,
479.0162659,-0.009761397727,479.0162659,0.07770778984,479.0162659,0.1853794008,479.0162659,0.2056321949,479.0162659,0.1770241857,
477.9838867,-0.01078274474,477.9838867,0.07720399648,477.9838867,0.184682861,477.9838867,0.2047852427,477.9838867,0.1768483669,
476.989624,-0.01062479522,476.989624,0.07723742723,476.989624,0.1841322631,476.989624,0.2038460523,476.989624,0.1762809604,
475.9951172,-0.009519006126,475.9951172,0.0776764974,475.9951172,0.1845612079,475.9951172,0.2050390989,475.9951172,0.1766221672,
475.0004272,-0.01030048262,475.0004272,0.07635561377,475.0004272,0.1840078086,475.0004272,0.2036528438,475.0004272,0.1763016731,
474.0055237,-0.01037181541,474.0055237,0.07654579729,474.0055237,0.1835830808,474.0055237,0.20399189,474.0055237,0.1762706786,
473.010498,-0.01045910642,473.010498,0.07628824562,473.010498,0.1824423522,473.010498,0.2034445256,473.010498,0.1749759912,
472.0151672,-0.01063404046,472.0151672,0.07576984912,472.0151672,0.1822814643,472.0151672,0.2023981065,472.0151672,0.175391376,
470.9814758,-0.01044182107,470.9814758,0.07567737252,470.9814758,0.1820656359,470.9814758,0.2021537572,470.9814758,0.175626561,
469.9858704,-0.00993767567,469.9858704,0.07610490173,469.9858704,0.1813210696,469.9858704,0.2017737776,469.9858704,0.1753238142,
468.9899597,-0.01014427934,468.9899597,0.07527565211,468.9899597,0.1809800118,468.9899597,0.2015743107,468.9899597,0.1754013002,
467.9939575,-0.009505026042,467.9939575,0.07541032881,467.9939575,0.1808112264,467.9939575,0.2018850595,467.9939575,0.1756330281,
466.9977417,-0.009748995304,466.9977417,0.07544232905,466.9977417,0.1804502457,466.9977417,0.2025759071,466.9977417,0.1754617095,
466.0013123,-0.0100457957,466.0013123,0.0748341158,466.0013123,0.1793641746,466.0013123,0.200858742,466.0013123,0.1745946854,
465.0046692,-0.009878165089,465.0046692,0.07505784184,465.0046692,0.1790667474,465.0046692,0.2017013133,465.0046692,0.1747885048,
464.0078735,-0.00965548493,464.0078735,0.074751243,464.0078735,0.1787964404,464.0078735,0.201003015,464.0078735,0.1751850694,
463.0108948,-0.009265937842,463.0108948,0.07516265661,463.0108948,0.1786307693,463.0108948,0.2023565322,463.0108948,0.1755178869,
462.0137329,-0.009315701202,462.0137329,0.07472909987,462.0137329,0.1782230139,462.0137329,0.2014200985,462.0137329,0.1750253737,
461.0163574,-0.009440441616,461.0163574,0.07433579117,461.0163574,0.1778920144,461.0163574,0.2012810409,461.0163574,0.1752625406,
460.0187988,-0.009562917054,460.0187988,0.07419107109,460.0187988,0.1772831082,460.0187988,0.2008089125,460.0187988,0.1751351207,
458.9826355,-0.009192953818,458.9826355,0.07506067306,458.9826355,0.1780431718,458.9826355,0.2013739198,458.9826355,0.1750996411,
457.9847107,-0.009528578259,457.9847107,0.07455505431,457.9847107,0.1776038259,457.9847107,0.2007676959,457.9847107,0.1755617112,
456.9866333,-0.009602366947,456.9866333,0.07449309528,456.9866333,0.177237004,456.9866333,0.2008194774,456.9866333,0.175737083,
455.9882813,-0.00963877514,455.9882813,0.0736855641,455.9882813,0.1770403683,455.9882813,0.2000878304,455.9882813,0.1753764153,
454.9898071,-0.009397733957,454.9898071,0.07384432852,454.9898071,0.1765434891,454.9898071,0.2012037635,454.9898071,0.1751700044,
453.9911194,-0.009880745783,453.9911194,0.07375786453,453.9911194,0.1762733459,453.9911194,0.1999314427,453.9911194,0.1751908511,
452.9923096,-0.00917744264,452.9923096,0.07419991493,452.9923096,0.1768423468,452.9923096,0.200816229,452.9923096,0.1761988997,
451.9932251,-0.009413540363,451.9932251,0.07435446978,451.9932251,0.1762743294,451.9932251,0.2010151893,451.9932251,0.1758177429,
450.993988,-0.009322491474,450.993988,0.07377556711,450.993988,0.1760952026,450.993988,0.2007375658,450.993988,0.1758639663,
449.9946289,-0.008538794704,449.9946289,0.07401609421,449.9946289,0.1760768741,449.9946289,0.2011047602,449.9946289,0.176408872,
448.9950256,-0.008781378157,448.9950256,0.07393375039,448.9950256,0.1760376245,448.9950256,0.2011269629,448.9950256,0.1764417738,
447.9952393,-0.009039090015,447.9952393,0.0744638443,447.9952393,0.1758874059,447.9952393,0.2018385828,447.9952393,0.1765072644,
446.9952393,-0.008919205517,446.9952393,0.07467751205,446.9952393,0.1763131768,446.9952393,0.2016146332,446.9952393,0.1766364425,
445.9951477,-0.00871308241,445.9951477,0.07420534641,445.9951477,0.1755738109,445.9951477,0.2004244477,445.9951477,0.1770530492,
444.994812,-0.008963024244,444.994812,0.07458615303,444.994812,0.1755099744,444.994812,0.2015075386,444.994812,0.1766616255,
443.9942932,-0.008279516362,443.9942932,0.07468637079,443.9942932,0.1759185344,443.9942932,0.2014382482,443.9942932,0.1777041256,
442.9935913,-0.008194782771,442.9935913,0.07566910982,442.9935913,0.176210314,442.9935913,0.2016459256,442.9935913,0.1777146459,
441.9927673,-0.008440503851,441.9927673,0.07500471175,441.9927673,0.175864473,441.9927673,0.2009904236,441.9927673,0.1772881597,
440.9916687,-0.008601584472,440.9916687,0.0746787414,440.9916687,0.1752919108,440.9916687,0.2013241202,440.9916687,0.1778906137,
439.990448,-0.008259959519,439.990448,0.07536414266,439.990448,0.1761086732,439.990448,0.2018666416,439.990448,0.1782273501,
438.9890442,-0.008595646359,438.9890442,0.07537054271,438.9890442,0.1754911691,438.9890442,0.2016783357,438.9890442,0.1781356633,
437.9875183,-0.007672354113,437.9875183,0.07569881529,437.9875183,0.175834775,437.9875183,0.2023608983,437.9875183,0.1785059273,
436.9856873,-0.008377132006,436.9856873,0.0755257979,436.9856873,0.1757877469,436.9856873,0.2020119876,436.9856873,0.1783982515,
435.9837341,-0.007696615998,435.9837341,0.07623030245,435.9837341,0.1763390899,435.9837341,0.2026008368,435.9837341,0.1793062687,
434.9816589,-0.00806033425,434.9816589,0.0758176595,434.9816589,0.1761573404,434.9816589,0.2019846141,434.9816589,0.1788564175,
434.0179138,-0.007903933525,434.0179138,0.07644638419,434.0179138,0.1761206836,434.0179138,0.2016310245,434.0179138,0.1788258255,
433.0154419,-0.007560639177,433.0154419,0.07726995647,433.0154419,0.1759966761,433.0154419,0.202442497,433.0154419,0.1792842448,
432.0127869,-0.007600373589,432.0127869,0.07750184834,432.0127869,0.1759684086,432.0127869,0.202479884,432.0127869,0.1795901209,
431.0099792,-0.006513928995,431.0099792,0.0780358538,431.0099792,0.1769575328,431.0099792,0.2025665045,431.0099792,0.1802585423,
430.0069885,-0.006253540516,430.0069885,0.0779690966,430.0069885,0.1769001484,430.0069885,0.2021488398,430.0069885,0.18021667,
429.0037842,-0.006179691292,429.0037842,0.0780364722,429.0037842,0.1767402142,429.0037842,0.2031310648,429.0037842,0.1806432903,
428.0004272,-0.006263236515,428.0004272,0.07843700051,428.0004272,0.1776883751,428.0004272,0.2028182745,428.0004272,0.1808683723,
426.9969482,-0.006198728923,426.9969482,0.0788352862,426.9969482,0.1777047813,426.9969482,0.2029563487,426.9969482,0.181443274,
425.9932861,-0.006253948901,425.9932861,0.07912454009,425.9932861,0.1771347821,425.9932861,0.2023430765,425.9932861,0.1810513288,
424.9894104,-0.006607047282,424.9894104,0.07937961072,424.9894104,0.1774516553,424.9894104,0.203032434,424.9894104,0.1812711656,
423.9853821,-0.006229555234,423.9853821,0.07900603116,423.9853821,0.1774490029,423.9853821,0.2029114515,423.9853821,0.1817802936,
422.9811707,-0.006105982699,422.9811707,0.07857882977,422.9811707,0.1775488108,422.9811707,0.2028544545,422.9811707,0.1816262901,
422.0154114,-0.005080420524,422.0154114,0.08005581796,422.0154114,0.1782162637,422.0154114,0.2038740665,422.0154114,0.1825440228,
421.0108032,-0.005492193624,421.0108032,0.0800024718,421.0108032,0.177858606,421.0108032,0.2044863552,421.0108032,0.1827158779,
420.0061035,-0.005727185868,420.0061035,0.08031190187,420.0061035,0.1786506921,420.0061035,0.2034918368,420.0061035,0.1826849729,
419.0012207,-0.004749584012,419.0012207,0.08192526549,419.0012207,0.1794117093,419.0012207,0.2053736001,419.0012207,0.18354702,
417.9961853,-0.005209349561,417.9961853,0.08078193665,417.9961853,0.1787742823,417.9961853,0.2044885904,417.9961853,0.1832205504,
416.9909363,-0.005248839036,416.9909363,0.08081545681,416.9909363,0.1789295375,416.9909363,0.2041844279,416.9909363,0.1840555817,
415.9855042,-0.004623796791,415.9855042,0.08113429695,415.9855042,0.179331705,415.9855042,0.2060422301,415.9855042,0.1853911728,
415.0186768,-0.005129080266,415.0186768,0.08144135028,415.0186768,0.179734081,415.0186768,0.2049259692,415.0186768,0.1857221872,
414.0129089,-0.004243038129,414.0129089,0.08250571787,414.0129089,0.1800387353,414.0129089,0.206298694,414.0129089,0.18617405,
413.007019,-0.004277028143,413.007019,0.08251135051,413.007019,0.1803082526,413.007019,0.2065543532,413.007019,0.1877944469,
412.000946,-0.004634041805,412.000946,0.08221627027,412.000946,0.1802944541,412.000946,0.2069707662,412.000946,0.1887010038,
410.9946899,-0.003669733647,410.9946899,0.08283272386,410.9946899,0.1806681752,410.9946899,0.2081683427,410.9946899,0.1897408217,
409.9882813,-0.004358172417,409.9882813,0.0825221464,409.9882813,0.1804078072,409.9882813,0.2088495642,409.9882813,0.1908645481,
408.9817505,-0.004019911401,408.9817505,0.08324193209,408.9817505,0.1804243177,408.9817505,0.2108538896,408.9817505,0.1920471489,
408.0137024,-0.003864357248,408.0137024,0.08328285068,408.0137024,0.1819871515,408.0137024,0.2115637362,408.0137024,0.1942150593,
407.0068359,-0.003604582977,407.0068359,0.08405862004,407.0068359,0.1824534237,407.0068359,0.2143694758,407.0068359,0.1966285408,
405.9997559,-0.003438966814,405.9997559,0.0839080438,405.9997559,0.1823578477,405.9997559,0.2128637731,405.9997559,0.1982490271,
404.9925232,-0.003837109078,404.9925232,0.08402211964,404.9925232,0.1825120151,404.9925232,0.2144485265,404.9925232,0.2003232688,
403.9851379,-0.003366435412,403.9851379,0.08432987332,403.9851379,0.1835253388,403.9851379,0.2176951021,403.9851379,0.2020538151,
403.0163269,-0.002856627107,403.0163269,0.08485724032,403.0163269,0.1839265972,403.0163269,0.2188024372,403.0163269,0.2055795044,
402.0086365,-0.003032439388,402.0086365,0.0846792385,402.0086365,0.1840494126,402.0086365,0.2208517641,402.0086365,0.2093556076,
401.0007629,-0.002984726569,401.0007629,0.08501408994,401.0007629,0.1845727712,401.0007629,0.2243757248,401.0007629,0.2129389495,
399.9926758,-0.002470248612,399.9926758,0.08565688133,399.9926758,0.1855718344,399.9926758,0.2273291498,399.9926758,0.2174211442,
398.9844971,-0.002699317876,398.9844971,0.08564020693,398.9844971,0.186572358,398.9844971,0.228074193,398.9844971,0.2215762436,
398.0149231,-0.002781683346,398.0149231,0.08541464806,398.0149231,0.1864924878,398.0149231,0.2325454354,398.0149231,0.2265212983,
397.0063782,-0.002442655154,397.0063782,0.08569062501,397.0063782,0.1870732754,397.0063782,0.2364389002,397.0063782,0.2317169458,
395.9977112,-0.00188583415,395.9977112,0.08621661365,395.9977112,0.1889422238,395.9977112,0.2410036474,395.9977112,0.2375920564,
394.9888306,-0.00233679614,394.9888306,0.0858656317,394.9888306,0.1888968647,394.9888306,0.2456456274,394.9888306,0.2440968156,
394.0186462,-0.002248526318,394.0186462,0.08629589528,394.0186462,0.1901774257,394.0186462,0.249124229,394.0186462,0.2502025068,
393.009491,-0.002427416388,393.009491,0.08626233041,393.009491,0.1914931089,393.009491,0.254942894,393.009491,0.2579099536,
392.0001526,-0.00134207902,392.0001526,0.08672181517,392.0001526,0.1930201352,392.0001526,0.2615273297,392.0001526,0.266074717,
390.9906921,-0.001553482725,390.9906921,0.08697332442,390.9906921,0.1944636554,390.9906921,0.2668947875,390.9906921,0.2740820348,
389.9810486,-0.001259543234,389.9810486,0.0874164626,389.9810486,0.196166411,389.9810486,0.2733205855,389.9810486,0.2838956714,
389.0100708,-0.0009704154218,389.0100708,0.08729757369,389.0100708,0.1978816688,389.0100708,0.2813505828,389.0100708,0.2941171229,
388.0001221,-0.001132792677,388.0001221,0.08762165904,388.0001221,0.2006377131,388.0001221,0.2901941836,388.0001221,0.3055072427,
386.9900208,-0.001009104308,386.9900208,0.08824970573,386.9900208,0.2025721073,386.9900208,0.2983594537,386.9900208,0.3174515069,
386.0186462,-0.0007147960714,386.0186462,0.08821307123,386.0186462,0.2039868087,386.0186462,0.3062016666,386.0186462,0.3297546804,
385.0082092,-0.0005320447963,385.0082092,0.08864957839,385.0082092,0.2074349821,385.0082092,0.3170143068,385.0082092,0.3438651562,
383.9976196,-0.000233842642,383.9976196,0.08926799148,383.9976196,0.210973382,383.9976196,0.3286973834,383.9976196,0.359177053,
382.986908,-0.0003728049633,382.986908,0.08873968571,382.986908,0.2136324346,382.986908,0.3415495455,382.986908,0.3753153384,
382.0148926,-0.0004072024021,382.0148926,0.0893208608,382.0148926,0.21742329,382.0148926,0.3539977372,382.0148926,0.392796874,
381.0038452,0.0004440418561,381.0038452,0.08991074562,381.0038452,0.2211625129,381.0038452,0.3672349453,381.0038452,0.4091492593,
379.9926453,0.000230472142,379.9926453,0.09019577503,379.9926453,0.2266867012,379.9926453,0.3809740841,379.9926453,0.4276908338,
378.9812927,-0.0001497503981,378.9812927,0.09061632305,378.9812927,0.2318702489,378.9812927,0.3977149427,378.9812927,0.450851649,
378.008728,0.0003481763706,378.008728,0.09154400229,378.008728,0.2376911491,378.008728,0.4163325131,378.008728,0.4728418887,
376.9970703,0.0003548085515,376.9970703,0.09256482124,376.9970703,0.2427593917,376.9970703,0.4354158044,376.9970703,0.4958677292,
375.9852905,-0.0001437986357,375.9852905,0.09352441132,375.9852905,0.2522599399,375.9852905,0.4532690346,375.9852905,0.5215638876,
375.012207,0.0004933560267,375.012207,0.09438169003,375.012207,0.259703964,375.012207,0.4754419625,375.012207,0.5467064977,
374.0001221,0.0008664127672,374.0001221,0.09649593383,374.0001221,0.2694641054,374.0001221,0.4985284209,374.0001221,0.5759244561,
372.987854,-3.344338256E-005,372.987854,0.09599696845,372.987854,0.278123498,372.987854,0.526358664,372.987854,0.6094281077,
372.0144043,-0.0005659125745,372.0144043,0.0978249386,372.0144043,0.2907751799,372.0144043,0.5517823696,372.0144043,0.6380683184,
371.0018616,-8.877979417E-005,371.0018616,0.099701114,371.0018616,0.3006573021,371.0018616,0.5779525042,371.0018616,0.6707372069,
369.9891663,-0.0005127053591,369.9891663,0.1016427055,369.9891663,0.3137651086,369.9891663,0.6038532257,369.9891663,0.7041741014,
369.0152588,-0.0004775922862,369.0152588,0.1035095975,369.0152588,0.3283686042,369.0152588,0.6380318403,369.0152588,0.7385461926,
368.0022583,-0.001813970855,368.0022583,0.1044097468,368.0022583,0.3429611921,368.0022583,0.6708047986,368.0022583,0.7786694169,
366.9891052,-0.001402822323,366.9891052,0.1077629328,366.9891052,0.359333545,366.9891052,0.7059662938,366.9891052,0.8138990998,
366.014801,-0.001636478351,366.014801,0.1102827638,366.014801,0.3763974905,366.014801,0.7369137406,366.014801,0.8528613448,
365.0013428,-0.003102096496,365.0013428,0.1128117964,365.0013428,0.3948263526,365.0013428,0.7704449296,365.0013428,0.8890190125,
363.987793,-0.003086880781,363.987793,0.1159293652,363.987793,0.4149255455,363.987793,0.8136236072,363.987793,0.9328839183,
363.013031,-0.00409525726,363.013031,0.1191219389,363.013031,0.4376678765,363.013031,0.8546549082,363.013031,0.9760582447,
361.999115,-0.004747023806,361.999115,0.1224187613,361.999115,0.457252562,361.999115,0.8913139105,361.999115,1.017041683,
360.9851074,-0.00631778501,360.9851074,0.126280278,360.9851074,0.4778710008,360.9851074,0.9275827408,360.9851074,1.058387041,
360.0099792,-0.006524180062,360.0099792,0.1306481361,360.0099792,0.5047528148,360.0099792,0.9762756824,360.0099792,1.102729678,
358.995636,-0.007224151865,358.995636,0.1354689151,358.995636,0.5346241593,358.995636,1.023821235,358.995636,1.152267098,
357.9812012,-0.008570215665,357.9812012,0.1411190331,357.9812012,0.5625507236,357.9812012,1.071178079,357.9812012,1.205245733,
357.0055847,-0.009002681822,357.0055847,0.1468242109,357.0055847,0.5895375013,357.0055847,1.112563133,357.0055847,1.242591023,
355.9908447,-0.01004503667,355.9908447,0.1530335546,355.9908447,0.6213680506,355.9908447,1.159181476,355.9908447,1.289519072,
355.0150146,-0.01114272792,355.0150146,0.1589035243,355.0150146,0.654271543,355.0150146,1.214619398,355.0150146,1.337017894,
353.9999695,-0.01204518415,353.9999695,0.1668658108,353.9999695,0.6890789866,353.9999695,1.263520122,353.9999695,1.394064307,
352.9848022,-0.01419878937,352.9848022,0.1737845689,352.9848022,0.7200838327,352.9848022,1.314625263,352.9848022,1.4388237,
352.0085144,-0.01489186287,352.0085144,0.1825643182,352.0085144,0.7567815185,352.0085144,1.366858244,352.0085144,1.487274528,
350.993042,-0.01526800077,350.993042,0.1919320822,350.993042,0.8011103868,350.993042,1.415377736,350.993042,1.539878726,
350.01651,-0.01680372469,350.01651,0.2012613714,350.01651,0.8351944089,350.01651,1.458102226,350.01651,1.575275779,
349.000824,-0.01829169691,349.000824,0.2123732865,349.000824,0.8744075298,349.000824,1.51283443,349.000824,1.62621212,
347.9849243,-0.01855196431,347.9849243,0.2258658111,347.9849243,0.9188374877,347.9849243,1.571650863,347.9849243,1.68027544,
347.0079651,-0.02060326934,347.0079651,0.2329313755,347.0079651,0.9620482326,347.0079651,1.624951959,347.0079651,1.717676759,
345.9918213,-0.02010639012,345.9918213,0.2464103848,345.9918213,1.001981139,345.9918213,1.676005244,345.9918213,1.771770477,
345.0146179,-0.02163049765,345.0146179,0.257681638,345.0146179,1.037878513,345.0146179,1.725927949,345.0146179,1.815553069,
343.9981995,-0.02247290313,343.9981995,0.2713628411,343.9981995,1.087836146,343.9981995,1.763512731,343.9981995,1.852446675,
342.9816284,-0.02224739082,342.9816284,0.2856380641,342.9816284,1.131822705,342.9816284,1.814227819,342.9816284,1.870881438,
342.0040283,-0.02191929147,342.0040283,0.299397707,342.0040283,1.173627019,342.0040283,1.870832324,342.0040283,1.918104053,
340.9871521,-0.0224905517,340.9871521,0.3132231832,340.9871521,1.21349287,340.9871521,1.880292416,340.9871521,1.953118801,
340.0093079,-0.0210274253,340.0093079,0.3266470432,340.0093079,1.248994231,340.0093079,1.909209251,340.0093079,2.024158001,
338.9921875,-0.02099378407,338.9921875,0.3431608975,338.9921875,1.284634352,338.9921875,1.994308352,338.9921875,1.994450331,
338.0140686,-0.01857046597,338.0140686,0.3583019078,338.0140686,1.325459361,338.0140686,2.006056547,338.0140686,2.054422855,
336.9966736,-0.01727150939,336.9966736,0.374391228,336.9966736,1.358964443,336.9966736,2.001110554,336.9966736,2.05436945,
336.01828,-0.01519056968,336.01828,0.388656646,336.01828,1.388680816,336.01828,2.073063374,336.01828,2.035367966,
335.0006104,-0.01082067098,335.0006104,0.4045910835,335.0006104,1.428186893,335.0006104,2.038427114,335.0006104,2.111660957,
333.9828186,-0.006498271134,333.9828186,0.4203340113,333.9828186,1.464074373,333.9828186,2.099984169,333.9828186,2.091150761,
333.0040283,-0.001123446273,333.0040283,0.4368775785,333.0040283,1.494481087,333.0040283,2.123437643,333.0040283,2.105898142,
331.9859924,0.003159039887,331.9859924,0.4527395666,331.9859924,1.522319913,331.9859924,2.125175953,331.9859924,2.110632658,
331.0069275,0.01184345596,331.0069275,0.4687557817,331.0069275,1.539859653,331.0069275,2.130264759,331.0069275,2.09482646,
329.9886475,0.02239183895,329.9886475,0.4870228469,329.9886475,1.567147613,329.9886475,2.130525112,329.9886475,2.138852596,
329.0093689,0.03054860234,329.0093689,0.5047605634,329.0093689,1.592217088,329.0093689,2.14405942,329.0093689,2.155239344,
327.9907532,0.04314113781,327.9907532,0.5215046406,327.9907532,1.614370108,327.9907532,2.148061991,327.9907532,2.127832651,
327.0112305,0.05776843801,327.0112305,0.5412953496,327.0112305,1.627364993,327.0112305,2.167388916,327.0112305,2.114656448,
325.9924011,0.07254105806,325.9924011,0.5574634671,325.9924011,1.641532302,325.9924011,2.184781313,325.9924011,2.112699032,
325.0126038,0.09023241699,325.0126038,0.5772856474,325.0126038,1.660789251,325.0126038,2.148064613,325.0126038,2.105819941,
323.9934692,0.1103322878,323.9934692,0.5954763889,323.9934692,1.663097501,323.9934692,2.152847052,323.9934692,2.108781815,
323.0134277,0.132484585,323.0134277,0.6154000163,323.0134277,1.682544589,323.0134277,2.119696856,323.0134277,2.072286606,
321.9941101,0.1589693725,321.9941101,0.638140142,321.9941101,1.687446117,321.9941101,2.146799088,321.9941101,2.020249844,
321.0138245,0.188767761,321.0138245,0.6584407687,321.0138245,1.699076653,321.0138245,2.140885592,321.0138245,2.037640095,
319.9941711,0.2227694392,319.9941711,0.6847854257,319.9941711,1.712481141,319.9941711,2.107111931,319.9941711,2.03186655,
319.0136414,0.2594289482,319.0136414,0.7066013217,319.0136414,1.720724106,319.0136414,2.030642271,319.0136414,2.002493858,
317.9937439,0.3054516315,317.9937439,0.7365659475,317.9937439,1.712999582,317.9937439,2.085761786,317.9937439,1.973876119,
317.01297,0.3434993029,317.01297,0.7637102604,317.01297,1.718996644,317.01297,2.010864735,317.01297,1.907814741,
315.9928589,0.388428092,315.9928589,0.7898156047,315.9928589,1.728168964,315.9928589,1.997897267,315.9928589,1.886416078,
315.0118408,0.4359434545,315.0118408,0.812574923,315.0118408,1.723350167,315.0118408,1.980181694,315.0118408,1.882355452,
313.9914551,0.4857782125,313.9914551,0.8385617733,313.9914551,1.705541372,313.9914551,1.933358192,313.9914551,1.845682383,
313.0101929,0.5417557955,313.0101929,0.8677312732,313.0101929,1.690805674,313.0101929,1.919196129,313.0101929,1.81070888,
311.989563,0.5902466178,311.989563,0.8958137035,311.989563,1.693568826,311.989563,1.87775588,311.989563,1.77692461,
311.0080566,0.6425388455,311.0080566,0.9218072295,311.0080566,1.696312189,311.0080566,1.841700792,311.0080566,1.741719961,
309.9871521,0.6951245666,309.9871521,0.9486172795,309.9871521,1.679453135,309.9871521,1.832961917,309.9871521,1.711968422,
309.0054321,0.7474220395,309.0054321,0.9741001129,309.0054321,1.671477437,309.0054321,1.789340734,309.0054321,1.66585958,
307.984314,0.7988762259,307.984314,1.001922131,307.984314,1.666378856,307.984314,1.748990774,307.984314,1.645632982,
307.0023193,0.8526695371,307.0023193,1.026127577,307.0023193,1.651583314,307.0023193,1.720456839,307.0023193,1.598976493,
305.980957,0.8958372474,305.980957,1.048012018,305.980957,1.632524014,305.980957,1.688551784,305.980957,1.575661421,
304.9987488,0.9467864037,304.9987488,1.072055578,304.9987488,1.627833962,304.9987488,1.66474843,304.9987488,1.543290377,
304.0164185,0.9895819426,304.0164185,1.092285872,304.0164185,1.606302619,304.0164185,1.614099741,304.0164185,1.508927345,
302.9947205,1.039478898,302.9947205,1.115879178,302.9947205,1.59341979,302.9947205,1.583395481,302.9947205,1.469984174,
302.012146,1.082166076,302.012146,1.135088086,302.012146,1.578039885,302.012146,1.55664289,302.012146,1.442350388,
300.9901428,1.123498917,300.9901428,1.152499676,300.9901428,1.570665598,300.9901428,1.526601791,300.9901428,1.415518641,
300.0073547,1.165541291,300.0073547,1.170621753,300.0073547,1.549858809,300.0073547,1.49360621,300.0073547,1.381819844,
298.9851074,1.204231381,298.9851074,1.187186956,298.9851074,1.535023808,298.9851074,1.462122798,298.9851074,1.351178169,
298.0021057,1.242737293,298.0021057,1.20548296,298.0021057,1.51743257,298.0021057,1.428098798,298.0021057,1.318128467,
297.0189819,1.274544835,297.0189819,1.21990335,297.0189819,1.508699179,297.0189819,1.400300026,297.0189819,1.292649865,
295.9963989,1.306258917,295.9963989,1.232092381,295.9963989,1.498714209,295.9963989,1.371726394,295.9963989,1.266147375,
295.0130615,1.342460036,295.0130615,1.250844479,295.0130615,1.478237629,295.0130615,1.340344548,295.0130615,1.236500859,
293.9902344,1.376719594,293.9902344,1.263849497,293.9902344,1.464377284,293.9902344,1.310746074,293.9902344,1.208361626,
293.0066223,1.409819603,293.0066223,1.280939817,293.0066223,1.446594834,293.0066223,1.282733321,293.0066223,1.181182504,
291.9836121,1.439135551,291.9836121,1.293298841,291.9836121,1.434319258,291.9836121,1.250754476,291.9836121,1.148307443,
290.9997864,1.477051973,290.9997864,1.311029911,290.9997864,1.421483755,290.9997864,1.227255583,290.9997864,1.122861147,
290.0158997,1.510073423,290.0158997,1.325417042,290.0158997,1.407606006,290.0158997,1.19415617,290.0158997,1.094831347,
288.9924622,1.546045065,288.9924622,1.339767694,288.9924622,1.401308775,288.9924622,1.167859912,288.9924622,1.066111088,
288.0083618,1.580809474,288.0083618,1.358035803,288.0083618,1.383724332,288.0083618,1.134262085,288.0083618,1.035169482,
286.9847412,1.617668986,286.9847412,1.370971799,286.9847412,1.365625501,286.9847412,1.10752666,286.9847412,1.009314895,
286.0003967,1.644672394,286.0003967,1.38859725,286.0003967,1.357354283,286.0003967,1.084295392,286.0003967,0.9855915308,
285.0158997,1.676952362,285.0158997,1.401145101,285.0158997,1.345742702,285.0158997,1.059457183,285.0158997,0.9612944126,
283.9919434,1.70629549,283.9919434,1.415877581,283.9919434,1.334332585,283.9919434,1.030267119,283.9919434,0.9332785606,
283.0072327,1.742747426,283.0072327,1.42789197,283.0072327,1.321890116,283.0072327,1.006618023,283.0072327,0.9073290229,
281.9830627,1.780753016,281.9830627,1.445935369,281.9830627,1.308677673,281.9830627,0.9829645753,281.9830627,0.8852991462,
280.9981689,1.803534508,280.9981689,1.45723772,280.9981689,1.297146916,280.9981689,0.9630801678,280.9981689,0.8673999906,
280.0131531,1.820175171,280.0131531,1.465324402,280.0131531,1.279726744,280.0131531,0.9374725819,280.0131531,0.8450649381,
278.9886169,1.834602594,278.9886169,1.466629505,278.9886169,1.264749885,278.9886169,0.9158896804,278.9886169,0.8261960745,
278.0033875,1.854839325,278.0033875,1.47915411,278.0033875,1.248990059,278.0033875,0.8970951438,278.0033875,0.8077710271,
277.0180664,1.880271435,277.0180664,1.487922311,277.0180664,1.235036254,277.0180664,0.8807859421,277.0180664,0.7949845791,
275.9931946,1.892369151,275.9931946,1.490887642,275.9931946,1.21641624,275.9931946,0.8652601242,275.9931946,0.7839724422,
275.0076294,1.902644634,275.0076294,1.498109937,275.0076294,1.205463886,275.0076294,0.8521318436,275.0076294,0.7739946246,
273.982605,1.90521729,273.982605,1.489431143,273.982605,1.186514139,273.982605,0.8409940004,273.982605,0.7685052156,
272.9968567,1.904819369,272.9968567,1.486134887,272.9968567,1.17294836,272.9968567,0.8331172466,272.9968567,0.7678528428,
272.0109863,1.898519635,272.0109863,1.480463386,272.0109863,1.154091239,272.0109863,0.8305370212,272.0109863,0.7698554397,
270.9855652,1.889436603,270.9855652,1.471110821,270.9855652,1.145355225,270.9855652,0.8294282556,270.9855652,0.7772326469,
269.9994812,1.856186152,269.9994812,1.454677224,269.9994812,1.127930284,269.9994812,0.8351866603,269.9994812,0.7931492925,
269.0133362,1.833940864,269.0133362,1.443442225,269.0133362,1.117113471,269.0133362,0.8436520696,269.0133362,0.8082234859,
267.9876404,1.818879485,267.9876404,1.422122002,267.9876404,1.104487777,267.9876404,0.8599773049,267.9876404,0.8391806483,
267.0012817,1.789845228,267.0012817,1.403906703,267.0012817,1.094790697,267.0012817,0.8815246224,267.0012817,0.8708251119,
266.0147705,1.753451586,266.0147705,1.383907199,266.0147705,1.087788701,266.0147705,0.9055081606,266.0147705,0.9041412473,
264.988739,1.705150485,264.988739,1.360504866,264.988739,1.084735394,264.988739,0.9428185225,264.988739,0.9541457295,
264.0020752,1.668171167,264.0020752,1.337341189,264.0020752,1.08169806,264.0020752,0.9912270904,264.0020752,1.016041875,
263.0152893,1.623472691,263.0152893,1.306345105,263.0152893,1.087777734,263.0152893,1.047297359,263.0152893,1.096060276,
261.9889526,1.566212773,261.9889526,1.280527711,261.9889526,1.096422434,261.9889526,1.114271879,261.9889526,1.184122801,
261.0019836,1.515928149,261.0019836,1.254440427,261.0019836,1.111841321,261.0019836,1.190550447,261.0019836,1.270666718,
260.0148926,1.470022678,260.0148926,1.232272148,260.0148926,1.133606553,260.0148926,1.272715688,260.0148926,1.375992537,
258.9882202,1.423215389,258.9882202,1.210058808,258.9882202,1.161765695,258.9882202,1.365492105,258.9882202,1.486831784,
258.000946,1.360845804,258.000946,1.185254812,258.000946,1.204853177,258.000946,1.488101721,258.000946,1.623503089,
257.0135803,1.303801298,257.0135803,1.163054109,257.0135803,1.252560854,257.0135803,1.584894419,257.0135803,1.7394979,
255.986618,1.259334564,255.986618,1.147100687,255.986618,1.303638697,255.986618,1.720208168,255.986618,1.882037401,
254.9990692,1.202794313,254.9990692,1.132131338,254.9990692,1.373571873,254.9990692,1.850349426,254.9990692,2.036924362,
254.0113831,1.151222944,254.0113831,1.123909712,254.0113831,1.44707346,254.0113831,1.985152841,254.0113831,2.205908775,
252.9841003,1.097433567,252.9841003,1.114781857,252.9841003,1.526820064,252.9841003,2.154252291,252.9841003,2.34800458,
251.9962616,1.05515039,251.9962616,1.111278415,251.9962616,1.610039115,251.9962616,2.260852098,251.9962616,2.456776142,
251.0082855,1.010900736,251.0082855,1.111168981,251.0082855,1.676113129,251.0082855,2.372192144,251.0082855,2.541157961,
249.9806824,0.9636079073,249.9806824,1.115071177,249.9806824,1.768386602,249.9806824,2.494433641,249.9806824,2.748657942,
248.9925537,0.924223423,248.9925537,1.12022078,248.9925537,1.843273401,248.9925537,2.573884964,248.9925537,2.783441305,
248.0043182,0.887530148,248.0043182,1.128488898,248.0043182,1.934886336,248.0043182,2.689077377,248.0043182,2.877135038,
247.015976,0.8532346487,247.015976,1.141531587,247.015976,1.996305585,247.015976,2.757618189,247.015976,2.932043314,
245.9880371,0.8251712322,245.9880371,1.153754473,245.9880371,2.051136017,245.9880371,2.854050159,245.9880371,2.920599699,
244.9994812,0.7965911627,244.9994812,1.165667415,244.9994812,2.132925272,244.9994812,2.939831018,244.9994812,3.038225412,
244.0108795,0.7797683477,244.0108795,1.180358171,244.0108795,2.158343077,244.0108795,2.953499317,244.0108795,3.102419615,
242.9826355,0.765363574,242.9826355,1.199368358,242.9826355,2.218054533,242.9826355,2.936062098,242.9826355,3.127863169,
241.9938049,0.7564038634,241.9938049,1.215014696,241.9938049,2.260743618,241.9938049,2.986584425,241.9938049,3.086397409,
241.0049133,0.7557865381,241.0049133,1.234891653,241.0049133,2.291427612,241.0049133,3.039088011,241.0049133,3.2126472,
240.0159302,0.7652373314,240.0159302,1.257650733,240.0159302,2.290876627,240.0159302,2.996073008,240.0159302,3.055262089,
238.9873047,0.7850641608,238.9873047,1.280768752,238.9873047,2.324335814,238.9873047,2.928385735,238.9873047,3.048624992,
237.9981537,0.8231176138,237.9981537,1.320630074,237.9981537,2.313922882,237.9981537,3.002965212,237.9981537,3.018712282,
237.0088654,0.8738628626,237.0088654,1.364241242,237.0088654,2.366652966,237.0088654,2.85421133,237.0088654,2.882520437,
236.0195465,0.9373642206,236.0195465,1.40155232,236.0195465,2.361573458,236.0195465,2.905770063,236.0195465,2.870030642,
234.990509,1.026356697,234.990509,1.475545645,234.990509,2.487558603,234.990509,3.039264917,234.990509,3.244635582,
234.0009613,1.11518991,234.0009613,1.541286111,234.0009613,2.413695812,234.0009613,3.070369482,234.0009613,3.067685127,
233.0113678,1.254413247,233.0113678,1.631475806,233.0113678,2.407365561,233.0113678,2.848819017,233.0113678,3.229096174,
231.9820862,1.425774217,231.9820862,1.748539805,231.9820862,2.475852013,231.9820862,2.853381872,231.9820862,2.976432323,
230.9922791,1.620858192,230.9922791,1.873522878,230.9922791,2.450847626,230.9922791,3.161435843,230.9922791,3.13092804,
230.0024109,1.81645155,230.0024109,1.964571476,230.0024109,2.594881535,230.0024109,3.002922535,230.0024109,3.23822093,
229.0124359,1.973202944,229.0124359,2.078287601,229.0124359,2.574647665,229.0124359,3.004966736,229.0124359,3.315000057,
227.9827728,2.204237461,227.9827728,2.136199474,227.9827728,2.723027468,227.9827728,3.077802181,227.9827728,3.076723099,
226.99263,2.331812382,226.99263,2.326216936,226.99263,2.320478439,226.99263,2.667806387,226.99263,2.801954031,
226.0023804,2.621615887,226.0023804,2.585884094,226.0023804,2.840040207,226.0023804,3.102096081,226.0023804,3.248450279,
225.012085,2.851712465,225.012085,2.686847687,225.012085,2.907196283,225.012085,3.216266632,225.012085,3.358323336,
223.9820557,2.921467781,223.9820557,2.849503756,223.9820557,2.930510283,223.9820557,3.408523798,223.9820557,3.485319614,
222.9915771,3.08387208,222.9915771,2.930044651,222.9915771,3.056326151,222.9915771,3.308952332,222.9915771,3.278965712,
222.0009918,3.816232204,222.0009918,2.98801589,222.0009918,3.068480968,222.0009918,3.332486629,222.0009918,3.369751453,
221.0103455,3.806034327,221.0103455,2.990992308,221.0103455,3.201423407,221.0103455,3.193383694,221.0103455,3.366940975,
220.0196075,3.165667772,220.0196075,3.27141118,220.0196075,3.024204254,220.0196075,2.974932432,220.0196075,3.451575756,
218.9891815,3.222911835,218.9891815,2.944274664,218.9891815,3.755778313,218.9891815,3.157201529,218.9891815,3.520689964,
217.9982452,3.174358606,217.9982452,2.984003782,217.9982452,3.091800213,217.9982452,2.988332987,217.9982452,2.999648094,
217.0072632,3.410811186,217.0072632,3.257426262,217.0072632,2.928570986,217.0072632,2.792155027,217.0072632,2.938838243,
216.0161896,3.256425142,216.0161896,3.16577673,216.0161896,2.920817614,216.0161896,3.109898329,216.0161896,2.951531887,
214.9853973,3.136915445,214.9853973,2.812235594,214.9853973,3.435874701,214.9853973,3.06665802,214.9853973,2.759763956,
213.9941559,4.044831753,213.9941559,2.893017292,213.9941559,3.088599443,213.9941559,3.168551922,213.9941559,3.556212425,
213.0028534,4.033739567,213.0028534,3.264439106,213.0028534,2.935684204,213.0028534,3.113582373,213.0028534,3.348993063,
212.0114441,3.431041002,212.0114441,3.495845795,212.0114441,2.996456146,212.0114441,3.260653734,212.0114441,3.253872633,
210.9803162,3.352319717,210.9803162,3.164069891,210.9803162,3.354915142,210.9803162,3.051305532,210.9803162,3.305541754,
209.9887543,3.288915396,209.9887543,3.365521908,209.9887543,2.883628607,209.9887543,3.027668953,209.9887543,3.081440449,
208.9971161,3.974128008,208.9971161,3.650402308,208.9971161,3.388842583,208.9971161,2.995710373,208.9971161,3.154006481,
208.0053864,3.25797534,208.0053864,2.975581408,208.0053864,2.874492884,208.0053864,2.950799227,208.0053864,3.027074575,
207.0136108,3.034300327,207.0136108,3.650443316,207.0136108,2.863077164,207.0136108,2.950213432,207.0136108,3.601477623,
205.9820557,3.308007002,205.9820557,2.920004606,205.9820557,3.48122716,205.9820557,2.972587824,205.9820557,3.206923485,
204.9901276,3.135402679,204.9901276,10,204.9901276,3.032537937,204.9901276,3.602781296,204.9901276,3.606377363,
203.9980774,3.141258478,203.9980774,2.987082958,203.9980774,2.702926159,203.9980774,3.595731497,203.9980774,3.365530491,
203.0059814,2.980322123,203.0059814,2.926869392,203.0059814,2.754089117,203.0059814,3.114585638,203.0059814,3.228105068,
202.0137939,3.133551598,202.0137939,3.044784307,202.0137939,2.899549961,202.0137939,3.094820261,202.0137939,3.011732817,
200.981842,3.636344194,200.981842,3.266494513,200.981842,3.218999863,200.981842,3.126898527,200.981842,3.626279354,
199.989502,2.798246622,199.989502,2.811478615,199.989502,2.71204567,199.989502,3.751862764,199.989502,3.201993465,

1.02,
1.02
Collection Time: 11/19/2015 3:44:01 PM
Operator Name  :
Scan Version 5.0.0.999
Parameter List :
Instrument  Cary 60
Instrument Version  2.00
Start (nm)  800.0
Stop (nm)  200.0
X Mode  Nanometers
Y Mode  Abs
UV-Vis Scan Rate (nm/min)  4800.000
UV-Vis Data Interval (nm)  1.00
UV-Vis Ave. Time (sec)  0.0125
Beam Mode  Dual Beam
Baseline Correction  On
Baseline Type  Baseline correction
Baseline File Name
Baseline Std Ref File Name
Cycle Mode  Off
Method Log     :
Method Name    :
Date/Time stamp: 11/19/2015 3:38:46 PM
Method Modifications:
Common Interval nm Changed: 11/19/2015 3:40:29 PM, Old:     5.00, New:     1.00
Baseline Correction Changed: 11/19/2015 3:40:35 PM, Old:0, New:1
End Method Modifications
<Current Wavelength> , 227.0

2.93,
2.93
Collection Time: 11/19/2015 3:45:48 PM
Operator Name  :
Scan Version 5.0.0.999
Parameter List :
Instrument  Cary 60
Instrument Version  2.00
Start (nm)  800.0
Stop (nm)  200.0
X Mode  Nanometers
Y Mode  Abs
UV-Vis Scan Rate (nm/min)  4800.000
UV-Vis Data Interval (nm)  1.00
UV-Vis Ave. Time (sec)  0.0125
Beam Mode  Dual Beam
Baseline Correction  On
Baseline Type  Baseline correction
Baseline File Name
Baseline Std Ref File Name
Cycle Mode  Off
Method Log     :
Method Name    :
Date/Time stamp: 11/19/2015 3:38:46 PM
Method Modifications:
Common Interval nm Changed: 11/19/2015 3:40:29 PM, Old:     5.00, New:     1.00
Baseline Correction Changed: 11/19/2015 3:40:35 PM, Old:0, New:1
End Method Modifications
<Current Wavelength> , 205.0

5.94,
5.94
Collection Time: 11/19/2015 4:13:13 PM
Operator Name  :
Scan Version 5.0.0.999
Parameter List :
Instrument  Cary 60
Instrument Version  2.00
Start (nm)  800.0
Stop (nm)  200.0
X Mode  Nanometers
Y Mode  Abs
UV-Vis Scan Rate (nm/min)  4800.000
UV-Vis Data Interval (nm)  1.00
UV-Vis Ave. Time (sec)  0.0125
Beam Mode  Dual Beam
Baseline Correction  On
Baseline Type  Baseline correction
Baseline File Name
Baseline Std Ref File Name
Cycle Mode  Off
Method Log     :
Method Name    :
Date/Time stamp: 11/19/2015 3:38:46 PM
Method Modifications:
Common Interval nm Changed: 11/19/2015 3:40:29 PM, Old:     5.00, New:     1.00
Baseline Correction Changed: 11/19/2015 3:40:35 PM, Old:0, New:1
End Method Modifications
<Current Wavelength> , 205.0

9.30,
9.30
Collection Time: 11/19/2015 4:14:53 PM
Operator Name  :
Scan Version 5.0.0.999
Parameter List :
Instrument  Cary 60
Instrument Version  2.00
Start (nm)  800.0
Stop (nm)  200.0
X Mode  Nanometers
Y Mode  Abs
UV-Vis Scan Rate (nm/min)  4800.000
UV-Vis Data Interval (nm)  1.00
UV-Vis Ave. Time (sec)  0.0125
Beam Mode  Dual Beam
Baseline Correction  On
Baseline Type  Baseline correction
Baseline File Name
Baseline Std Ref File Name
Cycle Mode  Off
Method Log     :
Method Name    :
Date/Time stamp: 11/19/2015 3:38:46 PM
Method Modifications:
Common Interval nm Changed: 11/19/2015 3:40:29 PM, Old:     5.00, New:     1.00
Baseline Correction Changed: 11/19/2015 3:40:35 PM, Old:0, New:1
End Method Modifications
<Current Wavelength> , 294.0

11.93,
11.93
Collection Time: 11/19/2015 4:16:15 PM
Operator Name  :
Scan Version 5.0.0.999
Parameter List :
Instrument  Cary 60
Instrument Version  2.00
Start (nm)  800.0
Stop (nm)  200.0
X Mode  Nanometers
Y Mode  Abs
UV-Vis Scan Rate (nm/min)  4800.000
UV-Vis Data Interval (nm)  1.00
UV-Vis Ave. Time (sec)  0.0125
Beam Mode  Dual Beam
Baseline Correction  On
Baseline Type  Baseline correction
Baseline File Name
Baseline Std Ref File Name
Cycle Mode  Off
Method Log     :
Method Name    :
Date/Time stamp: 11/19/2015 3:38:46 PM
Method Modifications:
Common Interval nm Changed: 11/19/2015 3:40:29 PM, Old:     5.00, New:     1.00
Baseline Correction Changed: 11/19/2015 3:40:35 PM, Old:0, New:1
End Method Modifications
<Current Wavelength> , 202.0

